-766.0
-715.0
-624.0
-521.0
-437.0
-388.0
-399.0
-459.0
-532.0
-566.0
-543.0
-502.0
-511.0
-572.0
-605.0
-536.0
-434.0
-445.0
-623.0
-821.0
-854.0
-708.0
-558.0
-532.0
-582.0
-586.0
-539.0
-549.0
-653.0
-743.0
-710.0
-594.0
-529.0
-562.0
-595.0
-561.0
-498.0
-491.0
-544.0
-590.0
-602.0
-623.0
-673.0
-659.0
-511.0
-342.0
-329.0
-516.0
-731.0
-773.0
-633.0
-495.0
-488.0
-552.0
-558.0
-482.0
-423.0
-476.0
-613.0
-739.0
-786.0
-751.0
-658.0
-550.0
-466.0
-427.0
-408.0
-377.0
-346.0
-399.0
-553.0
-712.0
-735.0
-605.0
-443.0
-373.0
-387.0
-402.0
-397.0
-423.0
-521.0
-621.0
-613.0
-509.0
-426.0
-444.0
-524.0
-564.0
-524.0
-458.0
-446.0
-502.0
-572.0
-582.0
-497.0
-364.0
-301.0
-404.0
-644.0
-867.0
-922.0
-798.0
-622.0
-512.0
-468.0
-419.0
-319.0
-216.0
-192.0
-263.0
-374.0
-459.0
-511.0
-556.0
-610.0
-638.0
-590.0
-480.0
-415.0
-475.0
-629.0
-739.0
-695.0
-530.0
-392.0
-376.0
-446.0
-505.0
-515.0
-511.0
-518.0
-526.0
-531.0
-538.0
-539.0
-491.0
-381.0
-280.0
-307.0
-485.0
-684.0
-733.0
-592.0
-389.0
-273.0
-297.0
-394.0
-459.0
-426.0
-325.0
-280.0
-413.0
-700.0
-929.0
-854.0
-491.0
-165.0
-194.0
-527.0
-797.0
-727.0
-447.0
-298.0
-425.0
-604.0
-573.0
-353.0
-207.0
-277.0
-430.0
-483.0
-441.0
-440.0
-533.0
-614.0
-579.0
-475.0
-427.0
-452.0
-474.0
-447.0
-463.0
-580.0
-728.0
-741.0
-578.0
-389.0
-357.0
-502.0
-652.0
-639.0
-483.0
-338.0
-324.0
-410.0
-490.0
-481.0
-396.0
-311.0
-310.0
-414.0
-577.0
-704.0
-738.0
-679.0
-568.0
-442.0
-305.0
-202.0
-212.0
-372.0
-566.0
-623.0
-504.0
-340.0
-308.0
-417.0
-520.0
-493.0
-368.0
-262.0
-249.0
-305.0
-348.0
-316.0
-160.0
83.0
292.0
334.0
183.0
-12.0
-90.0
-61.0
-55.0
-142.0
-217.0
-152.0
23.0
139.0
95.0
-38.0
-121.0
-137.0
-153.0
-217.0
-273.0
-270.0
-216.0
-194.0
-260.0
-377.0
-475.0
-510.0
-506.0
-526.0
-601.0
-699.0
-722.0
-625.0
-487.0
-475.0
-649.0
-869.0
-918.0
-756.0
-565.0
-527.0
-624.0
-686.0
-608.0
-485.0
-467.0
-564.0
-659.0
-665.0
-614.0
-577.0
-564.0
-547.0
-532.0
-563.0
-666.0
-797.0
-888.0
-900.0
-831.0
-694.0
-538.0
-416.0
-356.0
-352.0
-402.0
-495.0
-580.0
-579.0
-478.0
-371.0
-390.0
-522.0
-610.0
-500.0
-243.0
-58.0
-74.0
-170.0
-93.0
311.0
930.0
1540.0
2003.0
2367.0
2754.0
3191.0
3561.0
3715.0
3594.0
3267.0
2775.0
2067.0
1067.0
-176.0
-1482.0
-2677.0
-3732.0
-4657.0
-5356.0
-5631.0
-5387.0
-4792.0
-4139.0
-3567.0
-3010.0
-2369.0
-1713.0
-1207.0
-935.0
-828.0
-786.0
-758.0
-735.0
-683.0
-578.0
-479.0
-496.0
-630.0
-729.0
-616.0
-290.0
30.0
114.0
-59.0
-285.0
-353.0
-243.0
-101.0
-60.0
-112.0
-128.0
-44.0
68.0
98.0
40.0
-15.0
2.0
24.0
-41.0
-164.0
-171.0
18.0
233.0
213.0
-67.0
-326.0
-302.0
-75.0
35.0
-95.0
-217.0
-57.0
315.0
555.0
469.0
232.0
137.0
214.0
267.0
191.0
117.0
192.0
351.0
411.0
307.0
169.0
142.0
197.0
209.0
136.0
73.0
129.0
317.0
534.0
658.0
613.0
460.0
341.0
356.0
455.0
487.0
396.0
311.0
388.0
592.0
720.0
660.0
534.0
549.0
728.0
874.0
855.0
762.0
786.0
950.0
1084.0
1038.0
880.0
786.0
845.0
964.0
1041.0
1080.0
1159.0
1296.0
1419.0
1433.0
1362.0
1317.0
1371.0
1481.0
1542.0
1521.0
1497.0
1528.0
1591.0
1584.0
1460.0
1286.0
1183.0
1185.0
1222.0
1220.0
1177.0
1157.0
1194.0
1220.0
1150.0
954.0
688.0
457.0
352.0
352.0
343.0
208.0
-34.0
-246.0
-316.0
-295.0
-334.0
-513.0
-722.0
-795.0
-702.0
-596.0
-625.0
-791.0
-983.0
-1097.0
-1128.0
-1111.0
-1067.0
-1024.0
-1005.0
-1012.0
-995.0
-928.0
-884.0
-952.0
-1134.0
-1306.0
-1346.0
-1250.0
-1114.0
-1017.0
-972.0
-972.0
-1035.0
-1126.0
-1147.0
-1045.0
-923.0
-936.0
-1086.0
-1158.0
-993.0
-723.0
-660.0
-925.0
-1265.0
-1320.0
-1034.0
-718.0
-694.0
-937.0
-1136.0
-1051.0
-783.0
-638.0
-774.0
-1034.0
-1110.0
-890.0
-572.0
-441.0
-575.0
-777.0
-822.0
-720.0
-678.0
-833.0
-1070.0
-1148.0
-957.0
-621.0
-389.0
-383.0
-535.0
-676.0
-700.0
-627.0
-575.0
-612.0
-700.0
-736.0
-671.0
-558.0
-488.0
-499.0
-550.0
-582.0
-561.0
-515.0
-463.0
-414.0
-371.0
-343.0
-351.0
-416.0
-521.0
-630.0
-690.0
-692.0
-659.0
-599.0
-491.0
-345.0
-218.0
-200.0
-310.0
-442.0
-477.0
-412.0
-357.0
-389.0
-456.0
-486.0
-484.0
-516.0
-575.0
-591.0
-528.0
-459.0
-463.0
-512.0
-496.0
-390.0
-294.0
-338.0
-493.0
-621.0
-617.0
-508.0
-397.0
-341.0
-323.0
-332.0
-363.0
-414.0
-459.0
-481.0
-506.0
-565.0
-611.0
-562.0
-407.0
-237.0
-191.0
-307.0
-501.0
-637.0
-653.0
-589.0
-504.0
-441.0
-419.0
-421.0
-413.0
-386.0
-379.0
-432.0
-538.0
-627.0
-630.0
-555.0
-491.0
-483.0
-488.0
-410.0
-261.0
-171.0
-237.0
-397.0
-490.0
-447.0
-382.0
-417.0
-543.0
-644.0
-660.0
-653.0
-688.0
-705.0
-612.0
-411.0
-231.0
-151.0
-146.0
-154.0
-184.0
-289.0
-433.0
-508.0
-481.0
-412.0
-385.0
-384.0
-345.0
-263.0
-212.0
-270.0
-418.0
-557.0
-615.0
-589.0
-509.0
-428.0
-354.0
-289.0
-225.0
-202.0
-275.0
-418.0
-516.0
-470.0
-337.0
-276.0
-336.0
-384.0
-272.0
-93.0
-105.0
-401.0
-747.0
-807.0
-537.0
-246.0
-227.0
-458.0
-652.0
-607.0
-416.0
-287.0
-301.0
-394.0
-449.0
-422.0
-311.0
-151.0
-41.0
-119.0
-360.0
-557.0
-477.0
-182.0
-7.0
-186.0
-530.0
-635.0
-360.0
-38.0
-76.0
-481.0
-833.0
-774.0
-374.0
-12.0
65.0
-70.0
-185.0
-176.0
-116.0
-122.0
-224.0
-371.0
-487.0
-518.0
-458.0
-357.0
-310.0
-384.0
-523.0
-608.0
-567.0
-452.0
-382.0
-395.0
-410.0
-339.0
-210.0
-127.0
-156.0
-253.0
-337.0
-390.0
-438.0
-474.0
-447.0
-335.0
-218.0
-201.0
-307.0
-429.0
-465.0
-411.0
-352.0
-334.0
-323.0
-270.0
-206.0
-207.0
-312.0
-446.0
-513.0
-495.0
-482.0
-529.0
-574.0
-507.0
-328.0
-186.0
-211.0
-340.0
-414.0
-369.0
-318.0
-359.0
-435.0
-400.0
-250.0
-162.0
-269.0
-478.0
-570.0
-468.0
-336.0
-341.0
-431.0
-400.0
-188.0
16.0
-34.0
-330.0
-602.0
-605.0
-383.0
-198.0
-219.0
-333.0
-318.0
-120.0
94.0
149.0
72.0
29.0
91.0
148.0
102.0
28.0
75.0
240.0
343.0
221.0
-36.0
-193.0
-126.0
29.0
100.0
72.0
53.0
80.0
84.0
2.0
-120.0
-190.0
-190.0
-183.0
-208.0
-263.0
-327.0
-402.0
-481.0
-553.0
-594.0
-630.0
-688.0
-737.0
-707.0
-609.0
-519.0
-498.0
-523.0
-541.0
-554.0
-622.0
-735.0
-806.0
-753.0
-612.0
-470.0
-380.0
-353.0
-396.0
-501.0
-631.0
-699.0
-641.0
-508.0
-420.0
-425.0
-441.0
-392.0
-315.0
-318.0
-444.0
-598.0
-662.0
-622.0
-559.0
-521.0
-460.0
-313.0
-135.0
-83.0
-217.0
-377.0
-354.0
-136.0
82.0
124.0
57.0
93.0
327.0
639.0
866.0
1028.0
1304.0
1803.0
2475.0
3125.0
3610.0
3887.0
3947.0
3772.0
3364.0
2732.0
1872.0
760.0
-535.0
-1816.0
-2875.0
-3652.0
-4237.0
-4725.0
-5065.0
-5105.0
-4759.0
-4128.0
-3397.0
-2695.0
-2068.0
-1539.0
-1141.0
-875.0
-694.0
-572.0
-528.0
-583.0
-656.0
-611.0
-409.0
-176.0
-90.0
-192.0
-333.0
-352.0
-235.0
-114.0
-95.0
-137.0
-130.0
-23.0
103.0
166.0
138.0
58.0
-37.0
-117.0
-134.0
-43.0
125.0
247.0
203.0
23.0
-113.0
-73.0
64.0
105.0
-19.0
-138.0
-32.0
278.0
507.0
441.0
166.0
-11.0
64.0
250.0
299.0
183.0
96.0
182.0
333.0
343.0
168.0
-8.0
-2.0
139.0
218.0
150.0
47.0
72.0
224.0
352.0
342.0
234.0
129.0
56.0
-33.0
-113.0
-86.0
97.0
333.0
443.0
383.0
276.0
276.0
366.0
412.0
353.0
282.0
305.0
402.0
463.0
441.0
438.0
543.0
680.0
712.0
646.0
636.0
767.0
917.0
919.0
813.0
779.0
869.0
912.0
795.0
686.0
840.0
1215.0
1460.0
1325.0
1008.0
906.0
1116.0
1325.0
1248.0
998.0
946.0
1207.0
1521.0
1573.0
1376.0
1163.0
1081.0
1046.0
947.0
825.0
790.0
856.0
893.0
797.0
611.0
456.0
371.0
292.0
145.0
-64.0
-251.0
-343.0
-341.0
-312.0
-331.0
-449.0
-660.0
-877.0
-992.0
-973.0
-888.0
-859.0
-927.0
-1016.0
-1032.0
-977.0
-947.0
-1014.0
-1118.0
-1168.0
-1134.0
-1093.0
-1125.0
-1221.0
-1309.0
-1325.0
-1292.0
-1282.0
-1351.0
-1459.0
-1500.0
-1392.0
-1190.0
-1015.0
-969.0
-1022.0
-1088.0
-1125.0
-1170.0
-1247.0
-1301.0
-1266.0
-1159.0
-1069.0
-1076.0
-1156.0
-1239.0
-1287.0
-1309.0
-1308.0
-1273.0
-1193.0
-1102.0
-1008.0
-898.0
-774.0
-689.0
-720.0
-876.0
-1063.0
-1179.0
-1179.0
-1097.0
-990.0
-914.0
-913.0
-980.0
-1053.0
-1055.0
-969.0
-888.0
-891.0
-963.0
-1004.0
-947.0
-834.0
-734.0
-688.0
-712.0
-834.0
-1019.0
-1136.0
-1033.0
-742.0
-518.0
-601.0
-919.0
-1160.0
-1108.0
-860.0
-679.0
-668.0
-715.0
-708.0
-677.0
-702.0
-745.0
-732.0
-701.0
-773.0
-944.0
-1045.0
-947.0
-749.0
-626.0
-611.0
-586.0
-514.0
-524.0
-693.0
-851.0
-772.0
-494.0
-320.0
-415.0
-595.0
-584.0
-422.0
-380.0
-570.0
-749.0
-661.0
-375.0
-210.0
-287.0
-414.0
-392.0
-302.0
-359.0
-574.0
-737.0
-712.0
-603.0
-577.0
-619.0
-589.0
-452.0
-353.0
-414.0
-582.0
-704.0
-707.0
-639.0
-579.0
-547.0
-521.0
-481.0
-442.0
-423.0
-418.0
-432.0
-471.0
-516.0
-518.0
-430.0
-274.0
-156.0
-199.0
-419.0
-670.0
-745.0
-583.0
-359.0
-291.0
-426.0
-572.0
-527.0
-290.0
-79.0
-87.0
-313.0
-573.0
-680.0
-572.0
-357.0
-217.0
-288.0
-517.0
-697.0
-645.0
-420.0
-278.0
-378.0
-595.0
-656.0
-471.0
-239.0
-189.0
-341.0
-522.0
-577.0
-525.0
-468.0
-437.0
-400.0
-349.0
-336.0
-415.0
-569.0
-702.0
-741.0
-663.0
-520.0
-386.0
-305.0
-265.0
-194.0
-59.0
59.0
27.0
-204.0
-505.0
-670.0
-612.0
-447.0
-352.0
-379.0
-425.0
-376.0
-278.0
-259.0
-381.0
-529.0
-552.0
-439.0
-329.0
-314.0
-347.0
-285.0
-133.0
-56.0
-176.0
-413.0
-558.0
-491.0
-313.0
-195.0
-214.0
-308.0
-381.0
-399.0
-371.0
-324.0
-313.0
-356.0
-430.0
-455.0
-410.0
-359.0
-378.0
-449.0
-478.0
-409.0
-302.0
-253.0
-281.0
-298.0
-252.0
-202.0
-239.0
-367.0
-506.0
-591.0
-621.0
-610.0
-542.0
-401.0
-231.0
-140.0
-192.0
-347.0
-480.0
-496.0
-390.0
-247.0
-165.0
-182.0
-220.0
-207.0
-138.0
-111.0
-203.0
-369.0
-479.0
-459.0
-373.0
-349.0
-396.0
-401.0
-281.0
-123.0
-84.0
-199.0
-330.0
-330.0
-179.0
-13.0
40.0
-38.0
-171.0
-285.0
-333.0
-307.0
-230.0
-162.0
-160.0
-223.0
-272.0
-245.0
-153.0
-109.0
-195.0
-377.0
-515.0
-517.0
-399.0
-262.0
-169.0
-130.0
-137.0
-203.0
-307.0
-373.0
-338.0
-247.0
-218.0
-295.0
-385.0
-360.0
-218.0
-98.0
-116.0
-263.0
-430.0
-526.0
-527.0
-432.0
-245.0
-19.0
116.0
47.0
-190.0
-393.0
-356.0
-81.0
200.0
252.0
88.0
-45.0
66.0
353.0
537.0
443.0
170.0
-35.0
-58.0
13.0
49.0
64.0
114.0
172.0
124.0
-21.0
-122.0
-60.0
84.0
139.0
48.0
-61.0
-63.0
-8.0
-75.0
-324.0
-619.0
-761.0
-697.0
-531.0
-403.0
-362.0
-368.0
-382.0
-403.0
-453.0
-530.0
-597.0
-620.0
-585.0
-522.0
-488.0
-517.0
-571.0
-579.0
-487.0
-355.0
-339.0
-528.0
-787.0
-847.0
-587.0
-216.0
-70.0
-261.0
-574.0
-722.0
-634.0
-484.0
-447.0
-499.0
-523.0
-474.0
-419.0
-419.0
-452.0
-458.0
-422.0
-378.0
-352.0
-337.0
-326.0
-311.0
-301.0
-287.0
-258.0
-204.0
-137.0
-36.0
153.0
488.0
973.0
1542.0
2079.0
2534.0
2929.0
3290.0
3576.0
3693.0
3557.0
3182.0
2589.0
1765.0
682.0
-597.0
-1894.0
-3017.0
-3911.0
-4607.0
-5109.0
-5314.0
-5128.0
-4603.0
-3944.0
-3339.0
-2809.0
-2288.0
-1761.0
-1323.0
-1085.0
-992.0
-864.0
-624.0
-404.0
-377.0
-515.0
-606.0
-522.0
-399.0
-463.0
-668.0
-721.0
-455.0
-64.0
86.0
-100.0
-325.0
-275.0
-5.0
163.0
47.0
-165.0
-163.0
98.0
337.0
298.0
66.0
-50.0
85.0
259.0
183.0
-101.0
-263.0
-72.0
285.0
413.0
196.0
-64.0
-48.0
204.0
356.0
233.0
23.0
20.0
225.0
359.0
218.0
-94.0
-312.0
-294.0
-121.0
60.0
176.0
236.0
253.0
225.0
149.0
67.0
48.0
123.0
228.0
255.0
172.0
73.0
119.0
349.0
575.0
555.0
266.0
-36.0
-75.0
178.0
492.0
640.0
599.0
527.0
529.0
569.0
550.0
452.0
368.0
388.0
513.0
648.0
719.0
737.0
782.0
879.0
970.0
981.0
918.0
880.0
967.0
1144.0
1269.0
1245.0
1132.0
1084.0
1179.0
1307.0
1329.0
1224.0
1122.0
1167.0
1352.0
1522.0
1536.0
1388.0
1191.0
1064.0
1065.0
1166.0
1292.0
1369.0
1337.0
1194.0
1024.0
911.0
873.0
824.0
677.0
433.0
223.0
159.0
221.0
276.0
211.0
34.0
-180.0
-374.0
-541.0
-658.0
-661.0
-569.0
-525.0
-654.0
-870.0
-968.0
-901.0
-858.0
-1042.0
-1349.0
-1474.0
-1299.0
-1063.0
-1058.0
-1249.0
-1355.0
-1242.0
-1086.0
-1110.0
-1263.0
-1314.0
-1187.0
-1044.0
-1033.0
-1087.0
-1055.0
-967.0
-994.0
-1201.0
-1409.0
-1401.0
-1186.0
-991.0
-980.0
-1099.0
-1156.0
-1065.0
-937.0
-920.0
-1022.0
-1134.0
-1144.0
-1053.0
-931.0
-871.0
-907.0
-997.0
-1052.0
-1039.0
-977.0
-919.0
-899.0
-885.0
-823.0
-726.0
-662.0
-693.0
-795.0
-891.0
-945.0
-986.0
-1021.0
-989.0
-839.0
-644.0
-553.0
-618.0
-737.0
-779.0
-726.0
-682.0
-724.0
-788.0
-761.0
-623.0
-488.0
-474.0
-597.0
-739.0
-761.0
-629.0
-467.0
-437.0
-566.0
-697.0
-657.0
-469.0
-350.0
-441.0
-653.0
-771.0
-695.0
-524.0
-396.0
-341.0
-334.0
-380.0
-509.0
-664.0
-734.0
-678.0
-601.0
-602.0
-671.0
-683.0
-584.0
-475.0
-475.0
-574.0
-671.0
-697.0
-664.0
-600.0
-525.0
-456.0
-418.0
-425.0
-454.0
-486.0
-544.0
-638.0
-709.0
-676.0
-550.0
-428.0
-388.0
-400.0
-385.0
-341.0
-332.0
-393.0
-465.0
-467.0
-414.0
-399.0
-458.0
-532.0
-553.0
-550.0
-595.0
-689.0
-748.0
-716.0
-620.0
-533.0
-468.0
-401.0
-328.0
-316.0
-436.0
-635.0
-759.0
-734.0
-616.0
-516.0
-457.0
-420.0
-412.0
-480.0
-587.0
-600.0
-451.0
-282.0
-307.0
-536.0
-713.0
-599.0
-263.0
-48.0
-161.0
-464.0
-642.0
-575.0
-398.0
-305.0
-321.0
-355.0
-372.0
-446.0
-613.0
-769.0
-771.0
-623.0
-477.0
-478.0
-597.0
-656.0
-565.0
-444.0
-463.0
-639.0
-803.0
-814.0
-684.0
-548.0
-498.0
-492.0
-456.0
-409.0
-431.0
-544.0
-684.0
-768.0
-754.0
-655.0
-511.0
-393.0
-378.0
-478.0
-601.0
-634.0
-559.0
-487.0
-535.0
-666.0
-733.0
-637.0
-463.0
-392.0
-517.0
-730.0
-851.0
-807.0
-687.0
-612.0
-600.0
-578.0
-504.0
-428.0
-421.0
-475.0
-540.0
-580.0
-595.0
-578.0
-508.0
-411.0
-371.0
-455.0
-610.0
-708.0
-702.0
-645.0
-601.0
-555.0
-459.0
-336.0
-284.0
-344.0
-439.0
-481.0
-509.0
-622.0
-834.0
-998.0
-966.0
-759.0
-548.0
-462.0
-487.0
-534.0
-526.0
-479.0
-448.0
-482.0
-559.0
-598.0
-544.0
-447.0
-426.0
-529.0
-640.0
-615.0
-449.0
-323.0
-366.0
-481.0
-487.0
-357.0
-275.0
-388.0
-602.0
-710.0
-641.0
-521.0
-489.0
-524.0
-527.0
-482.0
-464.0
-514.0
-574.0
-595.0
-595.0
-616.0
-616.0
-509.0
-290.0
-114.0
-131.0
-341.0
-575.0
-659.0
-584.0
-505.0
-541.0
-663.0
-724.0
-642.0
-477.0
-384.0
-421.0
-506.0
-548.0
-545.0
-540.0
-513.0
-399.0
-226.0
-145.0
-280.0
-562.0
-751.0
-698.0
-485.0
-355.0
-437.0
-619.0
-680.0
-529.0
-295.0
-191.0
-291.0
-473.0
-539.0
-414.0
-199.0
-65.0
-79.0
-151.0
-149.0
-68.0
-39.0
-147.0
-295.0
-310.0
-132.0
103.0
219.0
186.0
127.0
134.0
148.0
61.0
-99.0
-188.0
-115.0
22.0
60.0
-42.0
-155.0
-171.0
-94.0
-45.0
-98.0
-186.0
-209.0
-158.0
-118.0
-174.0
-316.0
-475.0
-584.0
-652.0
-722.0
-797.0
-820.0
-738.0
-563.0
-379.0
-286.0
-319.0
-417.0
-507.0
-550.0
-550.0
-541.0
-552.0
-583.0
-590.0
-553.0
-513.0
-530.0
-600.0
-639.0
-596.0
-528.0
-525.0
-573.0
-554.0
-426.0
-322.0
-442.0
-745.0
-946.0
-824.0
-503.0
-326.0
-456.0
-699.0
-733.0
-487.0
-211.0
-169.0
-382.0
-621.0
-654.0
-441.0
-141.0
61.0
87.0
16.0
-29.0
49.0
247.0
531.0
873.0
1317.0
1897.0
2574.0
3207.0
3652.0
3831.0
3776.0
3544.0
3135.0
2477.0
1531.0
343.0
-933.0
-2157.0
-3247.0
-4154.0
-4813.0
-5182.0
-5276.0
-5168.0
-4897.0
-4399.0
-3628.0
-2720.0
-1960.0
-1563.0
-1472.0
-1413.0
-1187.0
-886.0
-748.0
-827.0
-931.0
-859.0
-642.0
-490.0
-514.0
-593.0
-539.0
-330.0
-125.0
-73.0
-147.0
-216.0
-210.0
-156.0
-117.0
-133.0
-214.0
-318.0
-364.0
-260.0
-39.0
140.0
160.0
70.0
-1.0
-5.0
-52.0
-202.0
-356.0
-328.0
-108.0
130.0
203.0
108.0
-4.0
6.0
116.0
197.0
133.0
-50.0
-207.0
-193.0
-1.0
201.0
209.0
-3.0
-232.0
-255.0
-71.0
123.0
156.0
65.0
19.0
127.0
296.0
336.0
183.0
-28.0
-103.0
6.0
169.0
218.0
127.0
33.0
71.0
223.0
350.0
350.0
274.0
253.0
358.0
530.0
649.0
632.0
500.0
357.0
308.0
379.0
517.0
613.0
622.0
613.0
697.0
878.0
1024.0
999.0
820.0
665.0
698.0
888.0
1055.0
1076.0
1039.0
1100.0
1289.0
1448.0
1400.0
1172.0
977.0
979.0
1134.0
1259.0
1256.0
1182.0
1158.0
1207.0
1254.0
1234.0
1151.0
1048.0
953.0
