-177.0
-223.0
-235.0
-219.0
-186.0
-139.0
-72.0
-17.0
-22.0
-100.0
-190.0
-224.0
-191.0
-160.0
-171.0
-197.0
-179.0
-113.0
-54.0
-60.0
-115.0
-157.0
-139.0
-87.0
-45.0
-31.0
-26.0
-22.0
-24.0
-46.0
-78.0
-103.0
-116.0
-129.0
-130.0
-101.0
-47.0
-11.0
-27.0
-81.0
-117.0
-102.0
-60.0
-50.0
-86.0
-125.0
-113.0
-56.0
-6.0
-19.0
-96.0
-170.0
-173.0
-105.0
-32.0
-15.0
-43.0
-54.0
-25.0
-1.0
-45.0
-137.0
-191.0
-157.0
-90.0
-73.0
-122.0
-161.0
-132.0
-72.0
-68.0
-131.0
-193.0
-189.0
-136.0
-91.0
-73.0
-50.0
-19.0
-17.0
-86.0
-173.0
-196.0
-134.0
-72.0
-84.0
-141.0
-141.0
-53.0
32.0
7.0
-109.0
-198.0
-188.0
-135.0
-131.0
-179.0
-195.0
-140.0
-73.0
-93.0
-204.0
-295.0
-270.0
-165.0
-90.0
-105.0
-154.0
-157.0
-112.0
-92.0
-143.0
-223.0
-259.0
-248.0
-236.0
-246.0
-238.0
-181.0
-115.0
-110.0
-169.0
-226.0
-226.0
-189.0
-165.0
-154.0
-114.0
-39.0
16.0
-0.0
-78.0
-148.0
-157.0
-113.0
-66.0
-50.0
-67.0
-81.0
-67.0
-26.0
-6.0
-41.0
-115.0
-164.0
-153.0
-107.0
-84.0
-101.0
-125.0
-132.0
-140.0
-179.0
-234.0
-258.0
-232.0
-182.0
-154.0
-158.0
-160.0
-131.0
-97.0
-105.0
-163.0
-214.0
-188.0
-80.0
23.0
33.0
-47.0
-119.0
-103.0
-33.0
-17.0
-100.0
-195.0
-173.0
-15.0
153.0
199.0
121.0
35.0
42.0
157.0
345.0
571.0
825.0
1134.0
1553.0
2145.0
2856.0
3475.0
3736.0
3561.0
3114.0
2598.0
2013.0
1196.0
88.0
-1092.0
-2003.0
-2477.0
-2620.0
-2601.0
-2457.0
-2108.0
-1548.0
-915.0
-392.0
-71.0
65.0
78.0
-5.0
-154.0
-311.0
-403.0
-405.0
-341.0
-263.0
-193.0
-118.0
-32.0
20.0
-20.0
-152.0
-293.0
-355.0
-315.0
-234.0
-177.0
-155.0
-135.0
-112.0
-106.0
-128.0
-157.0
-162.0
-135.0
-81.0
-22.0
23.0
34.0
9.0
-34.0
-67.0
-85.0
-96.0
-98.0
-71.0
-8.0
65.0
100.0
83.0
34.0
-4.0
-12.0
3.0
20.0
31.0
38.0
50.0
66.0
78.0
62.0
20.0
-22.0
-27.0
11.0
70.0
117.0
139.0
146.0
148.0
132.0
96.0
54.0
44.0
76.0
138.0
198.0
225.0
217.0
198.0
192.0
198.0
191.0
156.0
112.0
116.0
199.0
317.0
376.0
332.0
234.0
191.0
257.0
372.0
435.0
423.0
413.0
487.0
629.0
746.0
763.0
694.0
620.0
600.0
633.0
675.0
705.0
729.0
759.0
797.0
831.0
842.0
838.0
847.0
891.0
947.0
973.0
951.0
919.0
921.0
948.0
939.0
869.0
788.0
767.0
807.0
842.0
824.0
782.0
764.0
765.0
715.0
590.0
454.0
387.0
386.0
377.0
305.0
203.0
125.0
77.0
-3.0
-144.0
-304.0
-414.0
-459.0
-481.0
-515.0
-551.0
-571.0
-591.0
-647.0
-735.0
-804.0
-822.0
-819.0
-841.0
-884.0
-902.0
-884.0
-872.0
-912.0
-988.0
-1043.0
-1058.0
-1059.0
-1071.0
-1059.0
-988.0
-890.0
-846.0
-901.0
-1006.0
-1059.0
-1017.0
-940.0
-919.0
-965.0
-1000.0
-949.0
-832.0
-752.0
-790.0
-901.0
-957.0
-898.0
-794.0
-755.0
-803.0
-847.0
-811.0
-726.0
-700.0
-772.0
-872.0
-895.0
-816.0
-700.0
-630.0
-628.0
-664.0
-686.0
-682.0
-672.0
-681.0
-708.0
-715.0
-663.0
-571.0
-500.0
-498.0
-539.0
-561.0
-536.0
-498.0
-494.0
-524.0
-542.0
-514.0
-461.0
-431.0
-436.0
-454.0
-466.0
-472.0
-476.0
-472.0
-443.0
-391.0
-344.0
-332.0
-351.0
-375.0
-398.0
-417.0
-428.0
-420.0
-397.0
-376.0
-368.0
-354.0
-316.0
-271.0
-280.0
-351.0
-419.0
-406.0
-330.0
-279.0
-316.0
-396.0
-428.0
-386.0
-344.0
-366.0
-435.0
-473.0
-450.0
-390.0
-327.0
-264.0
-208.0
-196.0
-257.0
-350.0
-397.0
-362.0
-307.0
-302.0
-338.0
-344.0
-293.0
-240.0
-259.0
-344.0
-415.0
-423.0
-403.0
-407.0
-420.0
-382.0
-291.0
-226.0
-263.0
-360.0
-392.0
-304.0
-185.0
-168.0
-256.0
-327.0
-285.0
-189.0
-182.0
-312.0
-459.0
-483.0
-391.0
-312.0
-325.0
-368.0
-334.0
-221.0
-150.0
-212.0
-344.0
-415.0
-370.0
-283.0
-237.0
-241.0
-241.0
-225.0
-215.0
-227.0
-240.0
-232.0
-228.0
-262.0
-311.0
-315.0
-253.0
-184.0
-169.0
-215.0
-268.0
-282.0
-257.0
-227.0
-207.0
-191.0
-175.0
-172.0
-193.0
-235.0
-285.0
-327.0
-346.0
-336.0
-304.0
-272.0
-254.0
-248.0
-237.0
-226.0
-240.0
-286.0
-332.0
-338.0
-297.0
-243.0
-219.0
-224.0
-223.0
-193.0
-160.0
-164.0
-213.0
-259.0
-250.0
-184.0
-121.0
-106.0
-137.0
-177.0
-213.0
-258.0
-306.0
-310.0
-247.0
-155.0
-112.0
-134.0
-166.0
-160.0
-154.0
-209.0
-314.0
-374.0
-344.0
-281.0
-276.0
-315.0
-305.0
-208.0
-127.0
-166.0
-293.0
-360.0
-293.0
-174.0
-137.0
-206.0
-281.0
-285.0
-259.0
-290.0
-383.0
-451.0
-430.0
-349.0
-290.0
-293.0
-318.0
-316.0
-293.0
-283.0
-299.0
-306.0
-273.0
-217.0
-176.0
-164.0
-152.0
-113.0
-66.0
-54.0
-79.0
-106.0
-102.0
-75.0
-46.0
-22.0
-3.0
-12.0
-80.0
-198.0
-296.0
-304.0
-236.0
-182.0
-194.0
-237.0
-233.0
-166.0
-94.0
-93.0
-162.0
-241.0
-273.0
-266.0
-248.0
-237.0
-221.0
-189.0
-154.0
-159.0
-210.0
-268.0
-272.0
-215.0
-149.0
-136.0
-161.0
-161.0
-101.0
-36.0
-42.0
-106.0
-131.0
-64.0
47.0
103.0
82.0
51.0
93.0
233.0
442.0
689.0
979.0
1346.0
1836.0
2449.0
3056.0
3429.0
3396.0
2995.0
2427.0
1835.0
1155.0
249.0
-848.0
-1842.0
-2426.0
-2549.0
-2417.0
-2234.0
-2027.0
-1695.0
-1209.0
-687.0
-291.0
-86.0
-37.0
-62.0
-120.0
-212.0
-350.0
-495.0
-566.0
-503.0
-347.0
-204.0
-163.0
-202.0
-227.0
-185.0
-129.0
-138.0
-224.0
-309.0
-318.0
-244.0
-150.0
-90.0
-78.0
-88.0
-103.0
-113.0
-119.0
-118.0
-110.0
-92.0
-59.0
-11.0
22.0
7.0
-68.0
-157.0
-195.0
-157.0
-96.0
-68.0
-68.0
-48.0
18.0
83.0
85.0
32.0
-4.0
28.0
94.0
113.0
71.0
37.0
74.0
144.0
153.0
56.0
-70.0
-116.0
-54.0
45.0
113.0
142.0
163.0
177.0
170.0
142.0
130.0
143.0
144.0
94.0
37.0
49.0
158.0
281.0
311.0
226.0
122.0
107.0
200.0
321.0
388.0
379.0
351.0
360.0
416.0
459.0
443.0
379.0
341.0
373.0
451.0
506.0
525.0
552.0
616.0
670.0
655.0
589.0
567.0
634.0
735.0
788.0
788.0
808.0
880.0
938.0
909.0
812.0
744.0
761.0
819.0
848.0
825.0
789.0
776.0
776.0
755.0
707.0
653.0
614.0
588.0
566.0
537.0
498.0
445.0
375.0
280.0
169.0
57.0
-38.0
-114.0
-163.0
-199.0
-233.0
-287.0
-369.0
-472.0
-554.0
-591.0
-598.0
-627.0
-687.0
-739.0
-745.0
-732.0
-765.0
-878.0
-1010.0
-1078.0
-1050.0
-984.0
-948.0
-953.0
-955.0
-923.0
-875.0
-862.0
-903.0
-966.0
-992.0
-965.0
-910.0
-873.0
-859.0
-838.0
-790.0
-751.0
-772.0
-846.0
-901.0
-877.0
-801.0
-737.0
-714.0
-713.0
-711.0
-719.0
-748.0
-764.0
-732.0
-686.0
-691.0
-742.0
-755.0
-670.0
-553.0
-526.0
-621.0
-735.0
-752.0
-677.0
-610.0
-598.0
-599.0
-553.0
-485.0
-470.0
-536.0
-611.0
-616.0
-547.0
-482.0
-475.0
-500.0
-492.0
-436.0
-385.0
-408.0
-491.0
-565.0
-569.0
-517.0
-465.0
-446.0
-445.0
-439.0
-436.0
-460.0
-511.0
-557.0
-566.0
-535.0
-475.0
-400.0
-338.0
-321.0
-351.0
-395.0
-408.0
-391.0
-391.0
-447.0
-521.0
-535.0
-453.0
-335.0
-274.0
-306.0
-382.0
-420.0
-384.0
-305.0
-240.0
-215.0
-214.0
-211.0
-208.0
-220.0
-261.0
-304.0
-323.0
-317.0
-311.0
-311.0
-302.0
-263.0
-210.0
-175.0
-176.0
-190.0
-187.0
-169.0
-173.0
-204.0
-232.0
-211.0
-149.0
-101.0
-130.0
-231.0
-328.0
-337.0
-261.0
-167.0
-133.0
-159.0
-189.0
-178.0
-151.0
-150.0
-180.0
-192.0
-166.0
-134.0
-139.0
-165.0
-161.0
-121.0
-108.0
-164.0
-237.0
-238.0
-156.0
-81.0
-82.0
-125.0
-118.0
-48.0
-9.0
-82.0
-224.0
-312.0
-286.0
-210.0
-169.0
-170.0
-160.0
-126.0
-117.0
-171.0
-229.0
-209.0
-115.0
-54.0
-83.0
-140.0
-120.0
-27.0
21.0
-62.0
-200.0
-246.0
-165.0
-79.0
-95.0
-182.0
-208.0
-125.0
-28.0
-42.0
-164.0
-282.0
-300.0
-243.0
-182.0
-153.0
-130.0
-98.0
-82.0
-116.0
-177.0
-210.0
-186.0
-147.0
-146.0
-184.0
-203.0
-163.0
-89.0
-55.0
-83.0
-125.0
-119.0
-72.0
-40.0
-53.0
-79.0
-67.0
-22.0
-2.0
-46.0
-122.0
-162.0
-141.0
-94.0
-57.0
-33.0
-10.0
4.0
-25.0
-101.0
-178.0
-194.0
-139.0
-68.0
-35.0
-46.0
-67.0
-69.0
-56.0
-58.0
-90.0
-147.0
-203.0
-237.0
-222.0
-157.0
-73.0
-30.0
-43.0
-85.0
-105.0
-104.0
-114.0
-152.0
-163.0
-111.0
-39.0
-60.0
-199.0
-347.0
-358.0
-221.0
-82.0
-80.0
-184.0
-240.0
-165.0
-35.0
10.0
-75.0
-197.0
-258.0
-249.0
-238.0
-248.0
-234.0
-151.0
-40.0
5.0
-61.0
-165.0
-203.0
-153.0
-102.0
-130.0
-208.0
-231.0
-154.0
-59.0
-64.0
-172.0
-261.0
-229.0
-113.0
-51.0
-101.0
-189.0
-199.0
-115.0
-20.0
-4.0
-60.0
-119.0
-122.0
-71.0
9.0
92.0
154.0
163.0
107.0
7.0
-84.0
-129.0
-130.0
-124.0
-132.0
-144.0
-138.0
-113.0
-83.0
-82.0
-112.0
-147.0
-154.0
-138.0
-126.0
-131.0
-136.0
-116.0
-83.0
-92.0
-162.0
-249.0
-283.0
-247.0
-183.0
-134.0
-103.0
-71.0
-53.0
-83.0
-143.0
-163.0
-104.0
-21.0
-6.0
-65.0
-91.0
-1.0
147.0
199.0
92.0
-56.0
-72.0
77.0
277.0
439.0
615.0
932.0
1414.0
1963.0
2486.0
2982.0
3447.0
3765.0
3762.0
3389.0
2760.0
2006.0
1127.0
73.0
-1068.0
-2032.0
-2588.0
-2725.0
-2610.0
-2356.0
-1954.0
-1387.0
-763.0
-255.0
42.0
163.0
173.0
104.0
-26.0
-156.0
-227.0
-231.0
-218.0
-210.0
-190.0
-145.0
-100.0
-84.0
-89.0
-75.0
-40.0
-27.0
-63.0
-108.0
-103.0
-46.0
-2.0
-22.0
-90.0
-125.0
-77.0
22.0
99.0
113.0
89.0
73.0
83.0
92.0
69.0
34.0
39.0
103.0
175.0
193.0
149.0
98.0
99.0
139.0
156.0
127.0
106.0
141.0
216.0
257.0
229.0
154.0
98.0
84.0
99.0
123.0
160.0
203.0
233.0
242.0
256.0
288.0
314.0
286.0
213.0
168.0
218.0
329.0
391.0
339.0
233.0
185.0
230.0
292.0
291.0
233.0
207.0
274.0
406.0
514.0
542.0
498.0
434.0
395.0
400.0
440.0
494.0
542.0
573.0
586.0
595.0
609.0
620.0
629.0
637.0
646.0
657.0
673.0
699.0
744.0
805.0
865.0
881.0
838.0
779.0
779.0
864.0
984.0
1041.0
995.0
907.0
874.0
915.0
967.0
958.0
895.0
848.0
872.0
935.0
970.0
937.0
864.0
786.0
715.0
641.0
572.0
518.0
489.0
472.0
439.0
371.0
279.0
178.0
78.0
-18.0
-110.0
-204.0
-283.0
-331.0
-342.0
-338.0
-354.0
-410.0
-502.0
-604.0
-686.0
-734.0
-745.0
-732.0
-726.0
-751.0
-807.0
-873.0
-922.0
-936.0
-919.0
-894.0
-887.0
-897.0
-908.0
-892.0
-849.0
-816.0
-839.0
-915.0
-986.0
-990.0
-934.0
-869.0
-833.0
-805.0
-769.0
-743.0
-776.0
-860.0
-920.0
-889.0
-795.0
-712.0
-690.0
-701.0
-704.0
-688.0
-683.0
-702.0
-727.0
-729.0
-712.0
-691.0
-670.0
-629.0
-568.0
-509.0
-503.0
-563.0
-650.0
-688.0
-643.0
-551.0
-500.0
-534.0
-610.0
-634.0
-570.0
-476.0
-440.0
-483.0
-541.0
-533.0
-455.0
-373.0
-356.0
-403.0
-468.0
-502.0
-495.0
-460.0
-414.0
-377.0
-365.0
-373.0
-373.0
-353.0
-338.0
-378.0
-467.0
-533.0
-504.0
-402.0
-318.0
-314.0
-345.0
-327.0
-256.0
-225.0
-300.0
-426.0
-484.0
-435.0
-340.0
-288.0
-284.0
-287.0
-273.0
-265.0
-280.0
-303.0
-314.0
-313.0
-299.0
-263.0
-207.0
-180.0
-221.0
-311.0
-363.0
-323.0
-241.0
-224.0
-297.0
-377.0
-366.0
-270.0
-185.0
-204.0
-316.0
-433.0
-470.0
-418.0
-322.0
-239.0
-202.0
-210.0
-243.0
-282.0
-317.0
-339.0
-341.0
-331.0
-318.0
-303.0
-276.0
-236.0
-209.0
-223.0
-269.0
-295.0
-267.0
-220.0
-217.0
-263.0
-292.0
-246.0
-161.0
-132.0
-209.0
-323.0
-381.0
-354.0
-305.0
-285.0
-275.0
-229.0
-165.0
-155.0
-231.0
-324.0
-336.0
-252.0
-176.0
-195.0
-283.0
-322.0
-245.0
-116.0
-59.0
-127.0
-252.0
-328.0
-321.0
-264.0
-213.0
-188.0
-194.0
-225.0
-269.0
-298.0
-297.0
-277.0
-274.0
-291.0
-301.0
-279.0
-245.0
-238.0
-281.0
-337.0
-354.0
-318.0
-260.0
-221.0
-206.0
-194.0
-167.0
-134.0
-124.0
-152.0
-203.0
-246.0
-261.0
-247.0
-209.0
-168.0
-140.0
-139.0
-163.0
-204.0
-242.0
-264.0
-262.0
-238.0
-193.0
-147.0
-124.0
-141.0
-184.0
-225.0
-242.0
-239.0
-232.0
-234.0
-224.0
-188.0
-134.0
-98.0
-107.0
-155.0
-197.0
-184.0
-126.0
-88.0
-107.0
-152.0
-141.0
-57.0
25.0
-0.0
-132.0
-251.0
-247.0
-150.0
-79.0
-110.0
-182.0
-175.0
-69.0
16.0
-22.0
-148.0
-226.0
-177.0
-63.0
-1.0
-31.0
-81.0
-82.0
-54.0
-71.0
-151.0
-229.0
-239.0
-184.0
-123.0
-88.0
-68.0
-53.0
-58.0
-99.0
-142.0
-136.0
-85.0
-59.0
-92.0
-141.0
-130.0
-63.0
-20.0
-67.0
-164.0
-224.0
-202.0
-152.0
-127.0
-123.0
-109.0
-92.0
-103.0
-157.0
-218.0
-244.0
-231.0
-213.0
-194.0
-149.0
-75.0
-31.0
-62.0
-155.0
-221.0
-197.0
-114.0
-63.0
-70.0
-80.0
-26.0
70.0
129.0
102.0
40.0
26.0
71.0
96.0
46.0
-30.0
-38.0
26.0
67.0
-0.0
-134.0
-215.0
-190.0
-128.0
-112.0
-127.0
-100.0
-15.0
41.0
-14.0
-151.0
-254.0
-254.0
-192.0
-156.0
-163.0
-166.0
-123.0
-58.0
-24.0
-44.0
-80.0
-91.0
-69.0
-55.0
-71.0
-108.0
-119.0
-71.0
13.0
50.0
-9.0
-119.0
-164.0
-80.0
77.0
167.0
132.0
53.0
70.0
242.0
509.0
792.0
1090.0
1468.0
1991.0
2640.0
3300.0
3784.0
3927.0
3686.0
3161.0
2486.0
1704.0
761.0
-341.0
-1425.0
-2227.0
-2615.0
-2669.0
-2552.0
-2328.0
-1962.0
-1445.0
-887.0
-426.0
-118.0
45.0
81.0
-9.0
-175.0
-316.0
-369.0
-358.0
-351.0
-363.0
-330.0
-211.0
-65.0
-7.0
-77.0
-206.0
-276.0
-249.0
-172.0
-111.0
-68.0
-19.0
44.0
80.0
58.0
-14.0
-87.0
-122.0
-121.0
-107.0
-80.0
-33.0
28.0
74.0
78.0
37.0
-9.0
-21.0
19.0
74.0
103.0
84.0
45.0
23.0
32.0
33.0
-11.0
-96.0
-155.0
-125.0
-7.0
114.0
157.0
121.0
96.0
146.0
229.0
238.0
145.0
37.0
38.0
158.0
283.0
308.0
243.0
186.0
195.0
240.0
259.0
241.0
220.0
230.0
268.0
313.0
356.0
387.0
385.0
362.0
356.0
400.0
465.0
494.0
476.0
476.0
544.0
632.0
622.0
490.0
357.0
374.0
541.0
709.0
738.0
653.0
599.0
667.0
780.0
808.0
727.0
646.0
670.0
794.0
909.0
942.0
924.0
943.0
1015.0
1077.0
1059.0
978.0
925.0
963.0
1059.0
1125.0
1108.0
1045.0
999.0
991.0
989.0
970.0
950.0
960.0
991.0
991.0
918.0
802.0
698.0
629.0
566.0
473.0
360.0
282.0
275.0
301.0
282.0
190.0
72.0
-21.0
-96.0
-206.0
-348.0
-458.0
-472.0
-425.0
-412.0
-484.0
-595.0
-672.0
-686.0
-681.0
-703.0
-765.0
-828.0
-853.0
-826.0
-775.0
-753.0
-797.0
-871.0
-895.0
-831.0
-742.0
-718.0
-770.0
-814.0
-788.0
-727.0
-736.0
-837.0
-939.0
-924.0
-799.0
-679.0
-651.0
-683.0
-693.0
-651.0
-621.0
-661.0
-750.0
-801.0
-766.0
-683.0
-628.0
-629.0
-652.0
-644.0
-614.0
-613.0
-668.0
-747.0
-788.0
-765.0
-703.0
-661.0
-668.0
-710.0
-739.0
-737.0
-720.0
-723.0
-750.0
-766.0
-728.0
-647.0
-584.0
-584.0
-625.0
-658.0
-658.0
-646.0
-645.0
-643.0
-617.0
-583.0
-572.0
-587.0
-585.0
-551.0
-525.0
-565.0
-657.0
-715.0
-665.0
-543.0
-451.0
-453.0
-516.0
-569.0
-572.0
-537.0
-490.0
-465.0
-480.0
-524.0
-544.0
-498.0
-409.0
-372.0
-445.0
-563.0
-598.0
-506.0
-384.0
-347.0
-399.0
-441.0
-414.0
-375.0
-414.0
-518.0
-583.0
-535.0
-427.0
-368.0
-394.0
-438.0
-421.0
-351.0
-310.0
-347.0
-429.0
-485.0
-476.0
-416.0
-345.0
-293.0
-279.0
-299.0
-340.0
-365.0
-357.0
-329.0
-308.0
-294.0
-276.0
-249.0
-242.0
-272.0
-319.0
-339.0
-324.0
-321.0
-344.0
-354.0
-317.0
-264.0
-262.0
-313.0
-350.0
-327.0
-291.0
-303.0
-335.0
-291.0
-169.0
-114.0
-251.0
-495.0
-632.0
-561.0
-419.0
-403.0
-528.0
-604.0
-476.0
-194.0
44.0
107.0
20.0
-107.0
-190.0
-212.0
-192.0
-164.0
-156.0
-177.0
-200.0
-201.0
-168.0
-144.0
-149.0
-159.0
-151.0
-137.0
-148.0
-192.0
-229.0
-224.0
-195.0
-193.0
-237.0
-289.0
-305.0
-288.0
-276.0
-289.0
-299.0
-274.0
-232.0
-231.0
-289.0
-357.0
-377.0
-342.0
-295.0
-276.0
-277.0
-273.0
-261.0
-272.0
-308.0
-330.0
-299.0
-235.0
-193.0
-201.0
-224.0
-222.0
-207.0
-230.0
-311.0
-398.0
-416.0
-372.0
-323.0
-314.0
-313.0
-266.0
-186.0
-155.0
-225.0
-341.0
-406.0
-390.0
-353.0
-349.0
-360.0
-339.0
-288.0
-264.0
-295.0
-326.0
-283.0
-178.0
-108.0
-138.0
-224.0
-260.0
-205.0
-141.0
-185.0
-345.0
-498.0
-515.0
-388.0
-228.0
-163.0
-198.0
-242.0
-219.0
-165.0
-165.0
-249.0
-344.0
-361.0
-289.0
-205.0
-183.0
-215.0
-226.0
-187.0
-133.0
-121.0
-170.0
-233.0
-251.0
-214.0
-169.0
-164.0
-201.0
-256.0
-306.0
-344.0
-349.0
-297.0
-196.0
-113.0
-120.0
-217.0
-317.0
-341.0
-292.0
-241.0
-232.0
-247.0
-229.0
-160.0
-53.0
56.0
131.0
138.0
69.0
-27.0
-82.0
-72.0
-37.0
-21.0
-25.0
-26.0
-29.0
-64.0
-140.0
-203.0
-204.0
-178.0
-201.0
-285.0
-353.0
-332.0
-251.0
-211.0
-269.0
-353.0
-360.0
-271.0
-176.0
-159.0
-205.0
-228.0
-182.0
-121.0
-137.0
-232.0
-320.0
-322.0
-264.0
-221.0
-214.0
-190.0
-102.0
15.0
66.0
23.0
-40.0
-28.0
64.0
154.0
170.0
124.0
95.0
171.0
378.0
670.0
974.0
1283.0
1684.0
2272.0
3017.0
3686.0
3986.0
3804.0
3268.0
2588.0
1841.0
953.0
-123.0
-1246.0
-2152.0
-2653.0
-2755.0
-2587.0
-2260.0
-1821.0
-1291.0
-741.0
-273.0
31.0
169.0
195.0
154.0
46.0
-130.0
-335.0
-470.0
-461.0
-337.0
-200.0
-122.0
-87.0
-44.0
-2.0
-18.0
-114.0
-211.0
-220.0
-130.0
-31.0
10.0
7.0
17.0
50.0
64.0
26.0
-39.0
-81.0
-79.0
-60.0
-41.0
-13.0
35.0
83.0
96.0
58.0
2.0
-20.0
14.0
88.0
163.0
203.0
207.0
201.0
209.0
221.0
216.0
184.0
142.0
121.0
133.0
170.0
221.0
273.0
318.0
344.0
345.0
335.0
330.0
330.0
324.0
318.0
320.0
326.0
315.0
280.0
240.0
237.0
275.0
314.0
317.0
307.0
330.0
389.0
434.0
421.0
355.0
295.0
280.0
309.0
361.0
425.0
499.0
562.0
579.0
560.0
536.0
542.0
566.0
571.0
543.0
521.0
555.0
649.0
737.0
760.0
715.0
672.0
697.0
773.0
821.0
803.0
789.0
874.0
1039.0
1150.0
1101.0
964.0
912.0
1016.0
1155.0
1167.0
1061.0
997.0
1066.0
1175.0
1166.0
1020.0
882.0
863.0
915.0
917.0
837.0
755.0
739.0
755.0
722.0
607.0
466.0
357.0
276.0
190.0
93.0
3.0
-66.0
-134.0
-222.0
-335.0
-441.0
-508.0
-532.0
-542.0
-563.0
-603.0
-652.0
-706.0
-767.0
-839.0
-905.0
-953.0
-983.0
-1007.0
-1012.0
-976.0
-902.0
-845.0
-862.0
-955.0
-1053.0
-1083.0
-1034.0
-965.0
-929.0
-930.0
-924.0
-877.0
-802.0
-760.0
-793.0
-875.0
-928.0
-906.0
-839.0
-795.0
-797.0
-803.0
-771.0
-726.0
-734.0
-795.0
-833.0
-796.0
-723.0
-688.0
-696.0
-684.0
-619.0
-558.0
-570.0
-619.0
-605.0
-493.0
-381.0
-370.0
-441.0
-481.0
-436.0
-377.0
-415.0
-543.0
-650.0
-649.0
-570.0
-490.0
-441.0
-394.0
-337.0
-299.0
-321.0
-375.0
-405.0
-383.0
-354.0
