-155.0
-112.0
-69.0
-33.0
-0.0
32.0
38.0
-17.0
-116.0
-181.0
-165.0
-94.0
-66.0
-121.0
-201.0
-212.0
-152.0
-109.0
-145.0
-219.0
-244.0
-194.0
-133.0
-121.0
-149.0
-171.0
-176.0
-188.0
-219.0
-234.0
-212.0
-175.0
-148.0
-122.0
-79.0
-38.0
-48.0
-125.0
-209.0
-223.0
-168.0
-116.0
-115.0
-141.0
-129.0
-66.0
-18.0
-50.0
-141.0
-213.0
-207.0
-149.0
-101.0
-103.0
-125.0
-118.0
-82.0
-79.0
-152.0
-259.0
-301.0
-240.0
-139.0
-104.0
-150.0
-188.0
-138.0
-43.0
-14.0
-97.0
-206.0
-239.0
-187.0
-138.0
-146.0
-181.0
-188.0
-180.0
-204.0
-266.0
-300.0
-252.0
-147.0
-65.0
-47.0
-79.0
-113.0
-138.0
-159.0
-179.0
-185.0
-178.0
-179.0
-186.0
-178.0
-138.0
-90.0
-81.0
-129.0
-190.0
-217.0
-216.0
-233.0
-277.0
-295.0
-246.0
-167.0
-154.0
-246.0
-354.0
-364.0
-259.0
-139.0
-91.0
-113.0
-138.0
-137.0
-126.0
-135.0
-140.0
-120.0
-92.0
-85.0
-83.0
-40.0
62.0
164.0
200.0
148.0
68.0
23.0
26.0
32.0
5.0
-50.0
-95.0
-100.0
-83.0
-101.0
-181.0
-281.0
-312.0
-238.0
-108.0
-17.0
-5.0
-31.0
-32.0
-9.0
-17.0
-85.0
-171.0
-217.0
-203.0
-171.0
-152.0
-130.0
-76.0
-25.0
-41.0
-123.0
-175.0
-113.0
21.0
107.0
84.0
30.0
56.0
154.0
192.0
103.0
-10.0
8.0
159.0
302.0
350.0
409.0
649.0
1074.0
1519.0
1889.0
2286.0
2823.0
3358.0
3569.0
3288.0
2691.0
2052.0
1394.0
509.0
-661.0
-1816.0
-2548.0
-2751.0
-2652.0
-2484.0
-2237.0
-1794.0
-1189.0
-642.0
-312.0
-157.0
-49.0
32.0
14.0
-124.0
-271.0
-313.0
-262.0
-217.0
-226.0
-238.0
-189.0
-95.0
-36.0
-61.0
-128.0
-156.0
-104.0
-26.0
-4.0
-57.0
-112.0
-89.0
14.0
118.0
143.0
93.0
43.0
42.0
62.0
57.0
20.0
-1.0
30.0
97.0
149.0
163.0
154.0
142.0
114.0
60.0
13.0
35.0
139.0
256.0
282.0
200.0
105.0
102.0
177.0
215.0
132.0
-20.0
-114.0
-66.0
75.0
197.0
226.0
181.0
113.0
68.0
58.0
80.0
111.0
136.0
157.0
186.0
216.0
226.0
206.0
179.0
184.0
225.0
248.0
223.0
188.0
220.0
329.0
431.0
423.0
319.0
243.0
288.0
408.0
472.0
422.0
334.0
318.0
401.0
496.0
509.0
438.0
367.0
369.0
439.0
518.0
561.0
573.0
585.0
602.0
593.0
556.0
536.0
579.0
661.0
707.0
668.0
611.0
627.0
714.0
752.0
658.0
505.0
451.0
545.0
675.0
698.0
609.0
524.0
528.0
564.0
540.0
462.0
407.0
404.0
401.0
353.0
293.0
277.0
279.0
207.0
33.0
-149.0
-214.0
-160.0
-100.0
-133.0
-240.0
-329.0
-353.0
-363.0
-430.0
-547.0
-646.0
-683.0
-672.0
-648.0
-624.0
-595.0
-573.0
-594.0
-674.0
-770.0
-819.0
-800.0
-751.0
-724.0
-732.0
-746.0
-738.0
-705.0
-677.0
-676.0
-710.0
-757.0
-779.0
-750.0
-692.0
-662.0
-695.0
-757.0
-785.0
-752.0
-710.0
-706.0
-730.0
-717.0
-655.0
-600.0
-608.0
-657.0
-689.0
-682.0
-676.0
-697.0
-712.0
-675.0
-597.0
-536.0
-521.0
-521.0
-512.0
-514.0
-554.0
-597.0
-583.0
-504.0
-436.0
-446.0
-506.0
-534.0
-508.0
-494.0
-539.0
-601.0
-607.0
-556.0
-515.0
-521.0
-529.0
-482.0
-408.0
-399.0
-478.0
-555.0
-533.0
-425.0
-333.0
-322.0
-351.0
-350.0
-316.0
-310.0
-352.0
-391.0
-371.0
-321.0
-299.0
-313.0
-314.0
-275.0
-239.0
-279.0
-384.0
-456.0
-415.0
-307.0
-240.0
-259.0
-297.0
-278.0
-215.0
-201.0
-270.0
-363.0
-394.0
-365.0
-340.0
-350.0
-346.0
-293.0
-224.0
-217.0
-275.0
-327.0
-308.0
-254.0
-235.0
-262.0
-284.0
-271.0
-252.0
-286.0
-363.0
-413.0
-389.0
-320.0
-275.0
-282.0
-302.0
-287.0
-238.0
-210.0
-249.0
-335.0
-392.0
-369.0
-283.0
-203.0
-182.0
-207.0
-222.0
-201.0
-171.0
-172.0
-222.0
-290.0
-328.0
-303.0
-240.0
-203.0
-230.0
-297.0
-347.0
-345.0
-311.0
-273.0
-236.0
-187.0
-143.0
-135.0
-167.0
-196.0
-201.0
-209.0
-265.0
-353.0
-400.0
-345.0
-224.0
-123.0
-100.0
-132.0
-171.0
-192.0
-207.0
-214.0
-212.0
-200.0
-200.0
-220.0
-234.0
-201.0
-134.0
-89.0
-118.0
-197.0
-241.0
-198.0
-112.0
-62.0
-88.0
-158.0
-226.0
-276.0
-320.0
-354.0
-360.0
-339.0
-305.0
-265.0
-211.0
-153.0
-129.0
-172.0
-251.0
-288.0
-252.0
-187.0
-159.0
-180.0
-206.0
-194.0
-167.0
-182.0
-249.0
-314.0
-305.0
-233.0
-169.0
-172.0
-221.0
-234.0
-182.0
-142.0
-198.0
-326.0
-403.0
-353.0
-222.0
-134.0
-146.0
-203.0
-222.0
-202.0
-198.0
-243.0
-293.0
-302.0
-265.0
-225.0
-210.0
-207.0
-201.0
-205.0
-248.0
-316.0
-351.0
-327.0
-277.0
-261.0
-295.0
-333.0
-323.0
-280.0
-255.0
-268.0
-284.0
-263.0
-219.0
-194.0
-206.0
-227.0
-235.0
-248.0
-300.0
-368.0
-397.0
-358.0
-292.0
-254.0
-248.0
-237.0
-203.0
-185.0
-227.0
-308.0
-367.0
-371.0
-352.0
-344.0
-336.0
-294.0
-231.0
-202.0
-238.0
-287.0
-288.0
-242.0
-218.0
-248.0
-285.0
-266.0
-212.0
-192.0
-246.0
-316.0
-323.0
-262.0
-207.0
-212.0
-269.0
-319.0
-326.0
-298.0
-291.0
-348.0
-460.0
-562.0
-591.0
-527.0
-422.0
-344.0
-322.0
-332.0
-336.0
-323.0
-306.0
-300.0
-313.0
-326.0
-305.0
-239.0
-161.0
-126.0
-156.0
-213.0
-235.0
-199.0
-148.0
-132.0
-151.0
-175.0
-180.0
-174.0
-181.0
-225.0
-300.0
-373.0
-399.0
-364.0
-299.0
-261.0
-266.0
-279.0
-264.0
-250.0
-289.0
-365.0
-404.0
-367.0
-292.0
-258.0
-280.0
-306.0
-294.0
-270.0
-279.0
-321.0
-341.0
-308.0
-237.0
-167.0
-118.0
-97.0
-99.0
-122.0
-149.0
-159.0
-135.0
-97.0
-77.0
-84.0
-80.0
-5.0
180.0
435.0
684.0
925.0
1278.0
1852.0
2570.0
3149.0
3328.0
3102.0
2682.0
2215.0
1623.0
748.0
-376.0
-1470.0
-2249.0
-2621.0
-2688.0
-2559.0
-2258.0
-1803.0
-1293.0
-847.0
-521.0
-284.0
-104.0
2.0
-11.0
-146.0
-347.0
-526.0
-609.0
-570.0
-458.0
-352.0
-315.0
-331.0
-341.0
-303.0
-242.0
-208.0
-230.0
-282.0
-319.0
-304.0
-239.0
-153.0
-99.0
-109.0
-167.0
-208.0
-206.0
-183.0
-190.0
-222.0
-225.0
-154.0
-45.0
20.0
-9.0
-83.0
-122.0
-100.0
-53.0
-37.0
-62.0
-76.0
-27.0
70.0
142.0
131.0
49.0
-25.0
-19.0
42.0
81.0
56.0
7.0
-5.0
31.0
61.0
44.0
-12.0
-55.0
-53.0
-14.0
36.0
91.0
146.0
188.0
199.0
179.0
138.0
108.0
110.0
144.0
186.0
205.0
193.0
201.0
261.0
351.0
389.0
326.0
215.0
176.0
250.0
370.0
435.0
429.0
416.0
452.0
499.0
502.0
466.0
462.0
523.0
610.0
651.0
637.0
624.0
663.0
725.0
742.0
695.0
646.0
654.0
713.0
771.0
800.0
826.0
881.0
929.0
905.0
806.0
708.0
691.0
752.0
809.0
801.0
759.0
746.0
771.0
765.0
682.0
565.0
502.0
521.0
550.0
502.0
377.0
264.0
237.0
254.0
212.0
70.0
-97.0
-187.0
-181.0
-170.0
-241.0
-379.0
-495.0
-545.0
-564.0
-607.0
-663.0
-684.0
-652.0
-621.0
-638.0
-695.0
-738.0
-764.0
-807.0
-878.0
-932.0
-926.0
-871.0
-832.0
-840.0
-866.0
-867.0
-849.0
-855.0
-897.0
-928.0
-896.0
-802.0
-708.0
-662.0
-670.0
-698.0
-728.0
-764.0
-802.0
-823.0
-814.0
-793.0
-773.0
-750.0
-693.0
-608.0
-550.0
-573.0
-652.0
-699.0
-660.0
-580.0
-546.0
-577.0
-604.0
-563.0
-490.0
-479.0
-550.0
-618.0
-601.0
-524.0
-467.0
-469.0
-475.0
-441.0
-404.0
-441.0
-534.0
-575.0
-503.0
-395.0
-371.0
-445.0
-489.0
-405.0
-248.0
-185.0
-283.0
-433.0
-468.0
-372.0
-275.0
-292.0
-374.0
-391.0
-305.0
-233.0
-282.0
-403.0
-444.0
-350.0
-222.0
-196.0
-274.0
-344.0
-326.0
-270.0
-262.0
-308.0
-340.0
-325.0
-314.0
-340.0
-360.0
-310.0
-205.0
-155.0
-226.0
-358.0
-413.0
-338.0
-213.0
-150.0
-186.0
-262.0
-312.0
-318.0
-316.0
-327.0
-349.0
-361.0
-351.0
-309.0
-249.0
-200.0
-197.0
-248.0
-332.0
-404.0
-439.0
-438.0
-421.0
-392.0
-353.0
-302.0
-253.0
-218.0
-218.0
-261.0
-325.0
-367.0
-361.0
-318.0
-280.0
-277.0
-292.0
-282.0
-249.0
-226.0
-248.0
-295.0
-319.0
-290.0
-234.0
-198.0
-209.0
-234.0
-239.0
-229.0
-231.0
-254.0
-265.0
-228.0
-154.0
-106.0
-129.0
-194.0
-239.0
-246.0
-256.0
-310.0
-378.0
-400.0
-344.0
-256.0
-205.0
-214.0
-245.0
-261.0
-258.0
-257.0
-266.0
-275.0
-265.0
-231.0
-193.0
-176.0
-196.0
-253.0
-314.0
-345.0
-331.0
-293.0
-263.0
-262.0
-262.0
-233.0
-181.0
-157.0
-200.0
-283.0
-330.0
-297.0
-222.0
-178.0
-180.0
-184.0
-157.0
-145.0
-204.0
-304.0
-349.0
-296.0
-215.0
-212.0
-279.0
-322.0
-274.0
-191.0
-172.0
-231.0
-296.0
-300.0
-248.0
-188.0
-151.0
-142.0
-164.0
-217.0
-283.0
-313.0
-284.0
-232.0
-212.0
-229.0
-242.0
-204.0
-128.0
-73.0
-100.0
-185.0
-241.0
-212.0
-137.0
-96.0
-121.0
-149.0
-111.0
-31.0
-23.0
-133.0
-264.0
-284.0
-186.0
-103.0
-143.0
-253.0
-296.0
-223.0
-147.0
-189.0
-328.0
-422.0
-388.0
-275.0
-210.0
-237.0
-291.0
-292.0
-237.0
-182.0
-166.0
-164.0
-142.0
-99.0
-62.0
-34.0
5.0
56.0
68.0
13.0
-67.0
-86.0
-20.0
62.0
79.0
41.0
11.0
19.0
18.0
-49.0
-154.0
-212.0
-188.0
-129.0
-103.0
-117.0
-130.0
-121.0
-112.0
-125.0
-149.0
-156.0
-148.0
-153.0
-165.0
-158.0
-124.0
-91.0
-93.0
-142.0
-207.0
-250.0
-239.0
-168.0
-63.0
17.0
16.0
-53.0
-103.0
-72.0
20.0
77.0
36.0
-69.0
-122.0
-63.0
78.0
213.0
309.0
415.0
613.0
947.0
1406.0
1951.0
2527.0
3027.0
3306.0
3256.0
2895.0
2335.0
1656.0
836.0
-160.0
-1234.0
-2146.0
-2672.0
-2776.0
-2603.0
-2318.0
-1982.0
-1573.0
-1075.0
-553.0
-118.0
144.0
216.0
141.0
2.0
-123.0
-202.0
-256.0
-304.0
-328.0
-292.0
-193.0
-71.0
20.0
59.0
50.0
7.0
-70.0
-160.0
-214.0
-193.0
-123.0
-58.0
-38.0
-46.0
-43.0
-20.0
-17.0
-52.0
-96.0
-107.0
-82.0
-53.0
-49.0
-53.0
-34.0
8.0
32.0
6.0
-52.0
-76.0
-38.0
36.0
92.0
97.0
53.0
1.0
-31.0
-43.0
-51.0
-53.0
-41.0
-1.0
46.0
69.0
65.0
66.0
97.0
134.0
136.0
89.0
36.0
30.0
92.0
180.0
219.0
174.0
79.0
2.0
-5.0
43.0
85.0
80.0
58.0
82.0
170.0
266.0
300.0
258.0
208.0
197.0
218.0
235.0
255.0
308.0
400.0
478.0
491.0
449.0
416.0
433.0
482.0
516.0
525.0
521.0
519.0
510.0
502.0
514.0
561.0
616.0
644.0
633.0
623.0
657.0
739.0
819.0
838.0
776.0
679.0
619.0
632.0
684.0
708.0
684.0
658.0
674.0
715.0
704.0
610.0
501.0
470.0
521.0
562.0
518.0
410.0
310.0
249.0
189.0
87.0
-40.0
-145.0
-212.0
-265.0
-310.0
-328.0
-312.0
-293.0
-330.0
-445.0
-580.0
-661.0
-663.0
-640.0
-648.0
-691.0
-731.0
-737.0
-720.0
-729.0
-776.0
-833.0
-865.0
-867.0
-849.0
-823.0
-787.0
-755.0
-746.0
-776.0
-820.0
-858.0
-883.0
-903.0
-906.0
-873.0
-815.0
-780.0
-801.0
-850.0
-859.0
-807.0
-735.0
-700.0
-710.0
-716.0
-690.0
-660.0
-666.0
-719.0
-783.0
-815.0
-810.0
-792.0
-774.0
-748.0
-696.0
-629.0
-578.0
-572.0
-604.0
-640.0
-645.0
-617.0
-576.0
-544.0
-521.0
-488.0
-433.0
-390.0
-410.0
-500.0
-586.0
-583.0
-481.0
-367.0
-351.0
-441.0
-540.0
-558.0
-507.0
-468.0
-490.0
-539.0
-551.0
-497.0
-412.0
-334.0
-292.0
-291.0
-337.0
-406.0
-452.0
-445.0
-409.0
-382.0
-380.0
-369.0
-329.0
-288.0
-304.0
-386.0
-466.0
-468.0
-396.0
-328.0
-323.0
-361.0
-373.0
-332.0
-293.0
-315.0
-383.0
-421.0
-398.0
-350.0
-331.0
-334.0
-326.0
-303.0
-307.0
-356.0
-398.0
-376.0
-311.0
-275.0
-296.0
-323.0
-299.0
-245.0
-231.0
-284.0
-356.0
-388.0
-379.0
-369.0
-358.0
-323.0
-263.0
-236.0
-278.0
-348.0
-367.0
-318.0
-262.0
-261.0
-290.0
-285.0
-234.0
-209.0
-258.0
-341.0
-364.0
-313.0
-267.0
-308.0
-394.0
-409.0
-295.0
-145.0
-99.0
-211.0
-385.0
-477.0
-428.0
-304.0
-212.0
-204.0
-249.0
-278.0
-255.0
-212.0
-203.0
-250.0
-317.0
-360.0
-358.0
-327.0
-294.0
-271.0
-259.0
-272.0
-307.0
-345.0
-366.0
-374.0
-381.0
-371.0
-321.0
-240.0
-179.0
-188.0
-248.0
-294.0
-288.0
-253.0
-234.0
-237.0
-243.0
-245.0
-255.0
-280.0
-307.0
-316.0
-314.0
-314.0
-307.0
-274.0
-226.0
-195.0
-197.0
-205.0
-202.0
-200.0
-228.0
-266.0
-269.0
-214.0
-151.0
-144.0
-195.0
-234.0
-225.0
-198.0
-201.0
-221.0
-208.0
-146.0
-91.0
-97.0
-140.0
-148.0
-123.0
-131.0
-215.0
-309.0
-312.0
-210.0
-99.0
-71.0
-121.0
-161.0
-157.0
-152.0
-197.0
-263.0
-294.0
-276.0
-250.0
-248.0
-252.0
-230.0
-196.0
-196.0
-235.0
-264.0
-239.0
-177.0
-130.0
-109.0
-83.0
-44.0
-37.0
-108.0
-217.0
-273.0
-240.0
-189.0
-196.0
-246.0
-250.0
-177.0
-100.0
-112.0
-183.0
-210.0
-150.0
-83.0
-96.0
-159.0
-169.0
-102.0
-53.0
-127.0
-276.0
-353.0
-284.0
-158.0
-103.0
-144.0
-183.0
-143.0
-66.0
-60.0
-150.0
-269.0
-323.0
-310.0
-288.0
-302.0
-325.0
-310.0
-259.0
-233.0
-265.0
-304.0
-272.0
-167.0
-77.0
-76.0
-131.0
-134.0
-40.0
56.0
22.0
-136.0
-273.0
-261.0
-125.0
-8.0
5.0
-47.0
-79.0
-70.0
-72.0
-116.0
-171.0
-192.0
-184.0
-175.0
-173.0
-165.0
-148.0
-138.0
-162.0
-206.0
-237.0
-244.0
-250.0
-262.0
-257.0
-218.0
-169.0
-158.0
-211.0
-287.0
-319.0
-275.0
-194.0
-133.0
-117.0
-121.0
-117.0
-106.0
-117.0
-154.0
-184.0
-166.0
-99.0
-30.0
-16.0
-42.0
-43.0
19.0
92.0
86.0
5.0
-13.0
175.0
557.0
986.0
1367.0
1778.0
2357.0
3051.0
3581.0
3678.0
3342.0
2807.0
2245.0
1605.0
721.0
-405.0
-1522.0
-2327.0
-2699.0
-2733.0
-2575.0
-2291.0
-1869.0
-1320.0
-735.0
-250.0
44.0
136.0
74.0
-72.0
-237.0
-373.0
-457.0
-476.0
-454.0
-421.0
-398.0
-370.0
-328.0
-285.0
-284.0
-334.0
-396.0
-405.0
-342.0
-246.0
-182.0
-175.0
-221.0
-280.0
-316.0
-296.0
-240.0
-194.0
-191.0
-213.0
-220.0
-207.0
-226.0
-312.0
-427.0
-484.0
-455.0
-380.0
-315.0
-274.0
-240.0
-208.0
-211.0
-266.0
-337.0
-366.0
-347.0
-321.0
-321.0
-327.0
-279.0
-159.0
-44.0
-37.0
-150.0
-282.0
-311.0
-232.0
-157.0
-187.0
-289.0
-347.0
-304.0
-232.0
-226.0
-283.0
-320.0
-285.0
-209.0
-151.0
-122.0
-103.0
-102.0
-142.0
-199.0
-207.0
-136.0
-48.0
-18.0
-49.0
-60.0
-6.0
62.0
52.0
-41.0
-129.0
-118.0
-12.0
111.0
182.0
199.0
197.0
207.0
220.0
225.0
226.0
237.0
251.0
257.0
259.0
297.0
401.0
539.0
620.0
577.0
448.0
356.0
379.0
488.0
576.0
578.0
519.0
465.0
440.0
428.0
420.0
423.0
433.0
422.0
382.0
341.0
328.0
343.0
349.0
318.0
257.0
182.0
100.0
21.0
-28.0
-38.0
-46.0
-107.0
-241.0
-408.0
-529.0
-576.0
-575.0
-582.0
-620.0
-676.0
-711.0
-707.0
-686.0
-699.0
-767.0
-850.0
-874.0
-824.0
-757.0
-742.0
-783.0
-831.0
-845.0
-852.0
-896.0
-979.0
-1047.0
-1057.0
-1008.0
-931.0
-863.0
-829.0
-826.0
-828.0
-806.0
-752.0
-708.0
-720.0
-770.0
-782.0
-703.0
-582.0
-524.0
-585.0
-700.0
-751.0
-690.0
-583.0
-531.0
-558.0
-602.0
-595.0
-549.0
-524.0
-559.0
-616.0
-638.0
-607.0
-556.0
-514.0
-478.0
-438.0
-407.0
-418.0
-480.0
-554.0
-593.0
-582.0
-554.0
-534.0
-522.0
-492.0
-438.0
-387.0
-379.0
-419.0
-464.0
-456.0
-398.0
-337.0
-319.0
-327.0
-316.0
-282.0
-276.0
-328.0
-403.0
-431.0
-398.0
-350.0
-343.0
-380.0
-423.0
-441.0
-439.0
-442.0
-468.0
-516.0
-578.0
-632.0
-644.0
-604.0
-538.0
-496.0
-507.0
-551.0
-584.0
-558.0
-470.0
-362.0
-294.0
-307.0
-386.0
-474.0
-524.0
-536.0
-540.0
-558.0
-581.0
-585.0
-544.0
-465.0
-378.0
-320.0
-326.0
-392.0
-464.0
-491.0
-464.0
-435.0
-440.0
-470.0
-479.0
-447.0
-401.0
-397.0
-456.0
-545.0
-600.0
-583.0
-502.0
-414.0
-372.0
-391.0
-444.0
-490.0
-491.0
-451.0
-402.0
-389.0
-418.0
-456.0
-449.0
-388.0
-324.0
-339.0
-438.0
-546.0
-572.0
-513.0
-444.0
-420.0
-420.0
-400.0
-342.0
-297.0
-305.0
-345.0
-368.0
-366.0
-356.0
-351.0
-345.0
-337.0
-347.0
-398.0
-475.0
-535.0
-557.0
-554.0
-545.0
-519.0
-466.0
-407.0
-377.0
-390.0
-428.0
-453.0
-448.0
-423.0
-392.0
-352.0
-308.0
-270.0
-253.0
-265.0
-307.0
-365.0
-416.0
-433.0
-410.0
-364.0
-321.0
-291.0
-269.0
-253.0
-249.0
-261.0
-278.0
-284.0
-293.0
-312.0
-324.0
-296.0
-240.0
-217.0
-287.0
-413.0
-492.0
-453.0
-349.0
-281.0
-284.0
-303.0
-282.0
-233.0
-205.0
-211.0
-234.0
-258.0
-293.0
-328.0
-322.0
-261.0
-204.0
-213.0
-285.0
-349.0
-346.0
-296.0
-254.0
-243.0
-238.0
-216.0
-180.0
-152.0
-145.0
-165.0
-211.0
-268.0
-301.0
-289.0
-243.0
-210.0
-220.0
-250.0
-265.0
-264.0
-268.0
-289.0
-301.0
-281.0
-231.0
-187.0
-172.0
-173.0
-152.0
-111.0
-82.0
-97.0
-130.0
-124.0
-38.0
89.0
169.0
142.0
45.0
-42.0
-71.0
-74.0
-101.0
-162.0
-211.0
-211.0
-173.0
-144.0
-141.0
-150.0
-156.0
-162.0
-169.0
-166.0
-140.0
-102.0
-89.0
-119.0
-164.0
-190.0
-201.0
-224.0
-258.0
-274.0
-253.0
-215.0
-193.0
-179.0
-144.0
-99.0
-94.0
-153.0
-216.0
-192.0
-66.0
83.0
156.0
139.0
107.0
122.0
162.0
166.0
142.0
195.0
420.0
794.0
1200.0
1585.0
2028.0
2619.0
3242.0
3615.0
3542.0
3116.0
2572.0
1994.0
1226.0
146.0
-1080.0
-2088.0
-2654.0
-2849.0
-2864.0
-2734.0
-2363.0
-1737.0
-1024.0
-446.0
-76.0
136.0
207.0
106.0
-137.0
-364.0
-422.0
-327.0
-240.0
-259.0
-300.0
-220.0
-23.0
124.0
82.0
-96.0
-232.0
-224.0
-136.0
-90.0
-113.0
-127.0
-78.0
-14.0
-17.0
-80.0
-117.0
-66.0
42.0
111.0
103.0
61.0
46.0
48.0
29.0
-30.0
-81.0
-79.0
-29.0
13.0
16.0
7.0
36.0
90.0
113.0
86.0
50.0
54.0
106.0
162.0
191.0
189.0
162.0
104.0
35.0
-6.0
16.0
73.0
122.0
138.0
151.0
192.0
245.0
258.0
215.0
150.0
112.0
108.0
125.0
151.0
189.0
235.0
270.0
274.0
263.0
273.0
320.0
367.0
371.0
338.0
322.0
360.0
411.0
410.0
349.0
308.0
355.0
457.0
521.0
517.0
531.0
647.0
815.0
880.0
762.0
573.0
500.0
606.0
761.0
813.0
738.0
660.0
685.0
792.0
862.0
829.0
740.0
703.0
759.0
856.0
899.0
857.0
785.0
752.0
759.0
756.0
700.0
611.0
539.0
528.0
567.0
613.0
618.0
563.0
453.0
331.0
243.0
194.0
142.0
53.0
-53.0
-122.0
-154.0
-201.0
-311.0
-447.0
-522.0
-509.0
-497.0
-568.0
-676.0
-691.0
-585.0
-494.0
-581.0
-828.0
-1021.0
-989.0
-793.0
-664.0
-736.0
-913.0
-992.0
-897.0
-743.0
-700.0
-808.0
-956.0
-1019.0
-984.0
-921.0
-892.0
-889.0
-878.0
-855.0
-852.0
-883.0
-914.0
-897.0
-834.0
-768.0
-742.0
-752.0
-767.0
-768.0
-769.0
-770.0
-763.0
-727.0
-679.0
-644.0
-635.0
-630.0
-614.0
-596.0
-612.0
-660.0
-699.0
-697.0
-652.0
-589.0
-533.0
-492.0
-472.0
-480.0
-510.0
-539.0
-551.0
-542.0
-514.0
-462.0
-394.0
-343.0
-342.0
-390.0
-451.0
-492.0
-520.0
-557.0
-600.0
-614.0
-571.0
-482.0
-388.0
-328.0
-317.0
-342.0
-379.0
-402.0
-404.0
-396.0
-392.0
-387.0
-366.0
-338.0
-327.0
-358.0
-398.0
-400.0
-358.0
-318.0
-311.0
-325.0
-320.0
-288.0
-259.0
-270.0
-307.0
-334.0
-332.0
-320.0
-310.0
-310.0
-312.0
-319.0
-321.0
-323.0
-327.0
-340.0
-364.0
-387.0
-377.0
-330.0
-273.0
-239.0
-232.0
-254.0
-299.0
-359.0
-391.0
-358.0
-254.0
-139.0
-90.0
-135.0
-221.0
-272.0
-267.0
-248.0
-264.0
-327.0
-388.0
-381.0
-294.0
-183.0
-128.0
-163.0
-245.0
-293.0
-271.0
-224.0
-215.0
-243.0
-255.0
-209.0
-143.0
-121.0
-169.0
-242.0
-280.0
-264.0
-230.0
-198.0
-164.0
-125.0
-108.0
-136.0
-199.0
-243.0
-234.0
-193.0
-185.0
-236.0
-304.0
-315.0
-247.0
-153.0
-124.0
-185.0
-272.0
-290.0
-220.0
-130.0
-111.0
-165.0
-223.0
-228.0
-201.0
-200.0
-232.0
-254.0
-239.0
-196.0
-153.0
-103.0
-36.0
17.0
-15.0
-147.0
-282.0
-305.0
-211.0
-115.0
-120.0
-214.0
-283.0
-255.0
-182.0
-168.0
-237.0
-316.0
-331.0
-296.0
-274.0
-282.0
