-425.0
-397.0
-436.0
-462.0
-422.0
-361.0
-373.0
-466.0
-563.0
-595.0
-583.0
-583.0
-606.0
-602.0
-550.0
-497.0
-500.0
-539.0
-551.0
-523.0
-493.0
-466.0
-397.0
-275.0
-183.0
-199.0
-280.0
-265.0
-73.0
208.0
452.0
670.0
997.0
1463.0
1888.0
2042.0
1898.0
1665.0
1542.0
1476.0
1223.0
626.0
-183.0
-888.0
-1287.0
-1438.0
-1553.0
-1768.0
-2013.0
-2113.0
-1961.0
-1609.0
-1201.0
-860.0
-645.0
-560.0
-565.0
-600.0
-610.0
-587.0
-563.0
-573.0
-601.0
-612.0
-594.0
-569.0
-548.0
-517.0
-455.0
-406.0
-428.0
-527.0
-609.0
-570.0
-411.0
-254.0
-221.0
-327.0
-465.0
-524.0
-483.0
-410.0
-368.0
-362.0
-355.0
-335.0
-309.0
-297.0
-296.0
-299.0
-305.0
-302.0
-262.0
-182.0
-98.0
-71.0
-117.0
-187.0
-234.0
-270.0
-346.0
-462.0
-534.0
-475.0
-300.0
-135.0
-83.0
-146.0
-232.0
-257.0
-227.0
-201.0
-227.0
-288.0
-324.0
-287.0
-199.0
-123.0
-123.0
-186.0
-238.0
-206.0
-99.0
9.0
57.0
61.0
72.0
108.0
131.0
111.0
73.0
73.0
121.0
186.0
230.0
264.0
321.0
398.0
436.0
389.0
281.0
200.0
219.0
329.0
446.0
493.0
459.0
406.0
395.0
441.0
496.0
502.0
446.0
381.0
369.0
423.0
477.0
464.0
382.0
291.0
247.0
245.0
234.0
206.0
203.0
243.0
282.0
244.0
117.0
-29.0
-124.0
-174.0
-233.0
-314.0
-359.0
-325.0
-269.0
-296.0
-442.0
-616.0
-694.0
-670.0
-641.0
-686.0
-778.0
-831.0
-804.0
-746.0
-731.0
-784.0
-854.0
-879.0
-854.0
-818.0
-803.0
-811.0
-803.0
-760.0
-715.0
-727.0
-810.0
-911.0
-939.0
-873.0
-765.0
-689.0
-657.0
-644.0
-636.0
-659.0
-723.0
-791.0
-809.0
-768.0
-713.0
-691.0
-688.0
-675.0
-644.0
-625.0
-639.0
-673.0
-696.0
-701.0
-690.0
-662.0
-615.0
-561.0
-523.0
-524.0
-577.0
-679.0
-783.0
-822.0
-770.0
-660.0
-560.0
-514.0
-512.0
-524.0
-543.0
-575.0
-607.0
-611.0
-578.0
-544.0
-532.0
-513.0
-451.0
-372.0
-347.0
-412.0
-506.0
-549.0
-519.0
-451.0
-386.0
-344.0
-329.0
-340.0
-367.0
-378.0
-375.0
-387.0
-436.0
-472.0
-431.0
-330.0
-276.0
-324.0
-416.0
-447.0
-410.0
-389.0
-433.0
-471.0
-429.0
-338.0
-300.0
-359.0
-452.0
-497.0
-475.0
-419.0
-366.0
-328.0
-314.0
-329.0
-342.0
-319.0
-279.0
-286.0
-369.0
-471.0
-506.0
-449.0
-349.0
-256.0
-194.0
-186.0
-260.0
-390.0
-479.0
-451.0
-353.0
-301.0
-334.0
-363.0
-289.0
-145.0
-55.0
-90.0
-197.0
-284.0
-318.0
-328.0
-330.0
-323.0
-320.0
-354.0
-409.0
-435.0
-410.0
-372.0
-372.0
-401.0
-383.0
-288.0
-182.0
-159.0
-233.0
-325.0
-346.0
-305.0
-272.0
-300.0
-340.0
-306.0
-172.0
-21.0
42.0
-8.0
-102.0
-155.0
-138.0
-91.0
-58.0
-52.0
-60.0
-74.0
-93.0
-117.0
-137.0
-148.0
-140.0
-104.0
-34.0
65.0
164.0
241.0
288.0
314.0
321.0
289.0
204.0
94.0
33.0
83.0
223.0
336.0
316.0
171.0
25.0
-11.0
34.0
40.0
-62.0
-199.0
-253.0
-201.0
-137.0
-149.0
-230.0
-293.0
-289.0
-251.0
-242.0
-260.0
-263.0
-223.0
-169.0
-161.0
-224.0
-306.0
-342.0
-309.0
-252.0
-218.0
-212.0
-199.0
-165.0
-151.0
-206.0
-307.0
-374.0
-349.0
-271.0
-220.0
-219.0
-199.0
-103.0
22.0
52.0
-76.0
-263.0
-328.0
-187.0
78.0
316.0
473.0
639.0
934.0
1368.0
1814.0
2099.0
2159.0
2061.0
1940.0
1881.0
1836.0
1664.0
1237.0
567.0
-170.0
-757.0
-1103.0
-1283.0
-1437.0
-1596.0
-1661.0
-1543.0
-1273.0
-981.0
-771.0
-625.0
-485.0
-348.0
-269.0
-263.0
-278.0
-255.0
-213.0
-228.0
-330.0
-447.0
-487.0
-412.0
-285.0
-189.0
-165.0
-174.0
-152.0
-88.0
-48.0
-111.0
-263.0
-371.0
-309.0
-101.0
80.0
88.0
-51.0
-166.0
-152.0
-59.0
-11.0
-50.0
-115.0
-128.0
-80.0
-11.0
30.0
21.0
-21.0
-52.0
-39.0
9.0
45.0
40.0
34.0
88.0
187.0
237.0
165.0
23.0
-67.0
-35.0
59.0
120.0
123.0
127.0
184.0
270.0
321.0
287.0
195.0
115.0
107.0
173.0
271.0
344.0
369.0
364.0
365.0
380.0
393.0
373.0
320.0
277.0
302.0
404.0
534.0
615.0
622.0
588.0
575.0
597.0
632.0
653.0
676.0
731.0
825.0
925.0
985.0
975.0
898.0
807.0
781.0
850.0
941.0
942.0
843.0
763.0
818.0
957.0
1013.0
900.0
732.0
690.0
810.0
944.0
946.0
832.0
731.0
712.0
711.0
641.0
515.0
428.0
439.0
509.0
547.0
513.0
441.0
376.0
317.0
231.0
109.0
2.0
-50.0
-55.0
-78.0
-139.0
-195.0
-191.0
-158.0
-173.0
-271.0
-379.0
-390.0
-286.0
-173.0
-161.0
-252.0
-343.0
-361.0
-330.0
-328.0
-378.0
-425.0
-399.0
-302.0
-202.0
-163.0
-181.0
-221.0
-248.0
-267.0
-292.0
-320.0
-337.0
-338.0
-328.0
-306.0
-264.0
-220.0
-207.0
-246.0
-309.0
-333.0
-264.0
-128.0
-9.0
2.0
-94.0
-208.0
-249.0
-208.0
-147.0
-131.0
-160.0
-180.0
-149.0
-83.0
-24.0
-3.0
-42.0
-128.0
-231.0
-297.0
-283.0
-198.0
-95.0
-29.0
-20.0
-47.0
-81.0
-91.0
-74.0
-46.0
-36.0
-47.0
-49.0
-12.0
47.0
79.0
57.0
3.0
-37.0
-37.0
-8.0
38.0
91.0
138.0
149.0
105.0
31.0
-29.0
-62.0
-73.0
-67.0
-31.0
22.0
60.0
51.0
21.0
9.0
18.0
7.0
-54.0
-123.0
-124.0
-31.0
99.0
174.0
154.0
70.0
-12.0
-41.0
-14.0
23.0
18.0
-16.0
-16.0
58.0
161.0
199.0
132.0
31.0
-21.0
-17.0
-6.0
5.0
49.0
124.0
165.0
110.0
-1.0
-58.0
-17.0
55.0
76.0
50.0
44.0
82.0
106.0
78.0
12.0
-35.0
-52.0
-63.0
-86.0
-92.0
-56.0
14.0
73.0
88.0
50.0
-8.0
-52.0
-67.0
-55.0
-20.0
37.0
112.0
169.0
167.0
103.0
36.0
20.0
53.0
74.0
51.0
21.0
35.0
91.0
136.0
127.0
80.0
43.0
52.0
105.0
176.0
220.0
216.0
181.0
171.0
203.0
216.0
143.0
8.0
-76.0
-19.0
136.0
268.0
317.0
331.0
385.0
462.0
486.0
427.0
347.0
322.0
367.0
417.0
417.0
362.0
296.0
247.0
218.0
193.0
172.0
146.0
112.0
67.0
16.0
-42.0
-104.0
-179.0
-261.0
-337.0
-375.0
-353.0
-277.0
-180.0
-91.0
-36.0
-22.0
-56.0
-125.0
-199.0
-241.0
-250.0
-243.0
-236.0
-214.0
-157.0
-93.0
-91.0
-175.0
-277.0
-295.0
-216.0
-126.0
-115.0
-168.0
-197.0
-154.0
-96.0
-96.0
-149.0
-193.0
-178.0
-100.0
22.0
203.0
454.0
737.0
988.0
1195.0
1437.0
1759.0
2083.0
2251.0
2178.0
1960.0
1774.0
1654.0
1448.0
981.0
268.0
-464.0
-969.0
-1202.0
-1293.0
-1388.0
-1509.0
-1589.0
-1551.0
-1397.0
-1173.0
-936.0
-744.0
-641.0
-621.0
-623.0
-578.0
-489.0
-427.0
-468.0
-585.0
-665.0
-619.0
-470.0
-311.0
-221.0
-191.0
-189.0
-211.0
-283.0
-392.0
-471.0
-466.0
-424.0
-402.0
-392.0
-317.0
-161.0
-33.0
-55.0
-208.0
-346.0
-361.0
-298.0
-254.0
-250.0
-221.0
-144.0
-86.0
-110.0
-173.0
-186.0
-135.0
-100.0
-144.0
-222.0
-233.0
-156.0
-85.0
-113.0
-225.0
-307.0
-277.0
-173.0
-106.0
-114.0
-132.0
-89.0
-6.0
25.0
-41.0
-142.0
-186.0
-168.0
-148.0
-138.0
-94.0
8.0
102.0
114.0
64.0
57.0
135.0
220.0
219.0
174.0
201.0
334.0
453.0
435.0
294.0
172.0
166.0
227.0
254.0
231.0
237.0
330.0
462.0
534.0
504.0
441.0
435.0
496.0
555.0
561.0
548.0
599.0
723.0
827.0
816.0
709.0
611.0
592.0
606.0
582.0
538.0
547.0
613.0
632.0
519.0
335.0
232.0
276.0
356.0
323.0
175.0
50.0
58.0
141.0
161.0
49.0
-126.0
-265.0
-336.0
-374.0
-387.0
-362.0
-315.0
-306.0
-374.0
-489.0
-580.0
-619.0
-641.0
-663.0
-648.0
-577.0
-504.0
-528.0
-658.0
-781.0
-777.0
-684.0
-644.0
-739.0
-884.0
-916.0
-785.0
-611.0
-547.0
-623.0
-733.0
-777.0
-748.0
-707.0
-689.0
-678.0
-642.0
-580.0
-524.0
-513.0
-548.0
-601.0
-623.0
-598.0
-554.0
-531.0
-540.0
-560.0
-567.0
-560.0
-568.0
-608.0
-659.0
-693.0
-699.0
-670.0
-612.0
-539.0
-484.0
-483.0
-533.0
-583.0
-589.0
-556.0
-540.0
-559.0
-582.0
-562.0
-514.0
-495.0
-542.0
-611.0
-619.0
-545.0
-475.0
-482.0
-549.0
-566.0
-464.0
-321.0
-290.0
-431.0
-630.0
-704.0
-596.0
-408.0
-297.0
-318.0
-397.0
-438.0
-427.0
-410.0
-428.0
-462.0
-466.0
-412.0
-324.0
-253.0
-241.0
-281.0
-335.0
-370.0
-398.0
-449.0
-537.0
-599.0
-556.0
-411.0
-276.0
-270.0
-379.0
-474.0
-454.0
-368.0
-343.0
-419.0
-489.0
-443.0
-309.0
-228.0
-284.0
-405.0
-465.0
-433.0
-375.0
-365.0
-385.0
-380.0
-342.0
-319.0
-336.0
-386.0
-448.0
-515.0
-569.0
-576.0
-511.0
-420.0
-361.0
-357.0
-372.0
-364.0
-342.0
-349.0
-389.0
-429.0
-434.0
-409.0
-374.0
-357.0
-373.0
-428.0
-504.0
-551.0
-530.0
-470.0
-435.0
-446.0
-452.0
-405.0
-335.0
-327.0
-404.0
-486.0
-481.0
-400.0
-331.0
-326.0
-337.0
-312.0
-280.0
-309.0
-393.0
-449.0
-413.0
-332.0
-284.0
-271.0
-222.0
-109.0
-4.0
-8.0
-129.0
-271.0
-340.0
-324.0
-275.0
-234.0
-198.0
-145.0
-78.0
-10.0
34.0
48.0
32.0
6.0
-5.0
3.0
14.0
14.0
-3.0
-31.0
-81.0
-156.0
-230.0
-252.0
-211.0
-163.0
-188.0
-278.0
-358.0
-370.0
-359.0
-411.0
-533.0
-639.0
-657.0
-597.0
-525.0
-471.0
-432.0
-412.0
-449.0
-538.0
-613.0
-615.0
-571.0
-545.0
-540.0
-501.0
-421.0
-386.0
-484.0
-660.0
-753.0
-693.0
-583.0
-564.0
-639.0
-673.0
-565.0
-388.0
-306.0
-382.0
-506.0
-554.0
-523.0
-497.0
-499.0
-441.0
-229.0
86.0
353.0
508.0
676.0
1022.0
1514.0
1902.0
1983.0
1808.0
1627.0
1562.0
1472.0
1106.0
403.0
-436.0
-1125.0
-1542.0
-1753.0
-1890.0
-2016.0
-2108.0
-2097.0
-1942.0
-1667.0
-1345.0
-1055.0
-847.0
-713.0
-636.0
-611.0
-642.0
-694.0
-730.0
-753.0
-796.0
-857.0
-885.0
-822.0
-681.0
-538.0
-459.0
-443.0
-473.0
-545.0
-664.0
-766.0
-768.0
-647.0
-489.0
-417.0
-461.0
-537.0
-557.0
-521.0
-502.0
-550.0
-623.0
-632.0
-539.0
-393.0
-291.0
-292.0
-369.0
-443.0
-462.0
-453.0
-478.0
-551.0
-621.0
-621.0
-542.0
-447.0
-400.0
-417.0
-461.0
-492.0
-485.0
-440.0
-364.0
-298.0
-283.0
-322.0
-374.0
-384.0
-348.0
-318.0
-344.0
-407.0
-434.0
-372.0
-241.0
-141.0
-137.0
-209.0
-261.0
-229.0
-141.0
-80.0
-75.0
-74.0
-17.0
72.0
109.0
54.0
-30.0
-47.0
11.0
59.0
44.0
26.0
95.0
249.0
370.0
360.0
256.0
179.0
198.0
256.0
263.0
227.0
235.0
315.0
394.0
377.0
279.0
213.0
251.0
342.0
395.0
380.0
349.0
346.0
343.0
296.0
209.0
128.0
75.0
26.0
-48.0
-108.0
-99.0
-28.0
17.0
-34.0
-177.0
-324.0
-408.0
-430.0
-440.0
-461.0
-478.0
-476.0
-482.0
-530.0
-620.0
-702.0
-746.0
-777.0
-836.0
-901.0
-898.0
-798.0
-690.0
-704.0
-876.0
-1076.0
-1154.0
-1088.0
-1002.0
-1003.0
-1072.0
-1102.0
-1034.0
-910.0
-825.0
-835.0
-917.0
-1011.0
-1050.0
-1004.0
-908.0
-832.0
-819.0
-846.0
-851.0
-830.0
-837.0
-903.0
-978.0
-972.0
-865.0
-747.0
-725.0
-809.0
-903.0
-921.0
-869.0
-833.0
-863.0
-922.0
-922.0
-835.0
-730.0
-706.0
-781.0
-872.0
-888.0
-831.0
-789.0
-827.0
-893.0
-894.0
-801.0
-704.0
-686.0
-756.0
-846.0
-899.0
-912.0
-900.0
-854.0
-767.0
-665.0
-609.0
-626.0
-701.0
-775.0
-807.0
-786.0
-737.0
-700.0
-707.0
-750.0
-776.0
-736.0
-654.0
-605.0
-641.0
-726.0
-775.0
-736.0
-644.0
-555.0
-503.0
-486.0
-501.0
-557.0
-633.0
-682.0
-684.0
-672.0
-690.0
-737.0
-767.0
-749.0
-715.0
-723.0
-770.0
-795.0
-749.0
-661.0
-601.0
-602.0
-612.0
-575.0
-511.0
-509.0
-613.0
-757.0
-822.0
-777.0
-691.0
-643.0
-641.0
-665.0
-712.0
-801.0
-889.0
-889.0
-784.0
-670.0
-640.0
-661.0
-606.0
-452.0
-333.0
-388.0
-570.0
-707.0
-702.0
-655.0
-703.0
-821.0
-841.0
-692.0
-494.0
-443.0
-571.0
-728.0
-752.0
-643.0
-520.0
-479.0
-509.0
-551.0
-578.0
-603.0
-633.0
-653.0
-656.0
-649.0
-631.0
-581.0
-504.0
-447.0
-460.0
-528.0
-569.0
-527.0
-451.0
-437.0
-504.0
-560.0
-512.0
-391.0
-330.0
-408.0
-562.0
-648.0
-597.0
-477.0
-394.0
-370.0
-328.0
-213.0
-90.0
-56.0
-134.0
-230.0
-254.0
-233.0
-261.0
-349.0
-392.0
-306.0
-172.0
-157.0
-308.0
-479.0
-517.0
-438.0
-407.0
-514.0
-678.0
-753.0
-720.0
-675.0
-707.0
-791.0
-853.0
-859.0
-829.0
-779.0
-714.0
-653.0
-626.0
-622.0
-604.0
-570.0
-578.0
-666.0
-775.0
-789.0
-675.0
-531.0
-484.0
-549.0
-636.0
-669.0
-654.0
-640.0
-648.0
-656.0
-644.0
-618.0
-594.0
-586.0
-606.0
-666.0
-736.0
-758.0
-680.0
-496.0
-243.0
36.0
325.0
635.0
979.0
1324.0
1580.0
1638.0
1493.0
1281.0
1167.0
1141.0
997.0
516.0
-267.0
-1071.0
-1615.0
-1875.0
-2027.0
-2209.0
-2376.0
-2408.0
-2256.0
-1984.0
-1675.0
-1371.0
-1112.0
-964.0
-944.0
-972.0
-911.0
-723.0
-522.0
-470.0
-596.0
-771.0
-842.0
-782.0
-688.0
-662.0
-702.0
-727.0
-686.0
-612.0
-578.0
-611.0
-668.0
-686.0
-656.0
-623.0
-613.0
-588.0
-511.0
-411.0
-372.0
-440.0
-547.0
-576.0
-499.0
-420.0
-454.0
-586.0
-693.0
-679.0
-583.0
-523.0
-564.0
-650.0
-687.0
-629.0
-519.0
-419.0
-364.0
-343.0
-347.0
-370.0
-415.0
-461.0
-479.0
-458.0
-425.0
-397.0
-380.0
-348.0
-299.0
-261.0
-272.0
-325.0
-371.0
-358.0
-304.0
-261.0
-261.0
-277.0
-259.0
-194.0
-135.0
-142.0
-218.0
-291.0
-288.0
-185.0
-40.0
69.0
102.0
84.0
63.0
69.0
94.0
111.0
95.0
57.0
43.0
107.0
244.0
371.0
392.0
305.0
216.0
235.0
339.0
399.0
364.0
307.0
336.0
440.0
487.0
381.0
194.0
88.0
137.0
248.0
284.0
209.0
110.0
78.0
104.0
96.0
-3.0
-150.0
-253.0
-274.0
-233.0
-197.0
-199.0
-241.0
-306.0
-395.0
-515.0
-664.0
-803.0
-878.0
-845.0
-736.0
-640.0
-647.0
-751.0
-855.0
-872.0
-846.0
-878.0
-1004.0
-1148.0
-1204.0
-1159.0
-1103.0
-1102.0
-1140.0
-1160.0
-1140.0
-1096.0
-1044.0
-993.0
-973.0
-998.0
-1026.0
-996.0
-925.0
-913.0
-1022.0
-1169.0
-1191.0
-1052.0
-878.0
-820.0
-885.0
-960.0
-977.0
-970.0
-987.0
-1014.0
-997.0
-947.0
-914.0
-909.0
-892.0
-833.0
-777.0
-809.0
-925.0
-1039.0
-1065.0
-1001.0
-906.0
-834.0
-786.0
-747.0
-710.0
-705.0
-743.0
-805.0
-838.0
-822.0
-769.0
-719.0
-699.0
-710.0
-722.0
-726.0
-732.0
-753.0
-784.0
-809.0
-808.0
-775.0
-714.0
-649.0
-611.0
-620.0
-650.0
-667.0
-653.0
-625.0
-606.0
-588.0
-551.0
-510.0
-506.0
-563.0
-647.0
-699.0
-705.0
-705.0
-717.0
-713.0
-658.0
-586.0
-567.0
-620.0
-687.0
-693.0
-652.0
-632.0
-657.0
-671.0
-616.0
-507.0
-431.0
-436.0
-516.0
-616.0
-692.0
-718.0
-697.0
-657.0
-653.0
-701.0
-746.0
-722.0
-651.0
-616.0
-672.0
-748.0
-724.0
-577.0
-424.0
-380.0
-457.0
-556.0
-592.0
-587.0
-622.0
-727.0
-843.0
-878.0
-800.0
-663.0
-567.0
-560.0
-606.0
-630.0
-595.0
-530.0
-492.0
-492.0
-493.0
-452.0
-395.0
-376.0
-422.0
-495.0
-536.0
-528.0
-500.0
-491.0
-499.0
-495.0
-468.0
-436.0
-426.0
-443.0
-458.0
-451.0
-428.0
-392.0
-334.0
-253.0
-170.0
-135.0
-163.0
-219.0
-244.0
-240.0
-260.0
-322.0
-361.0
-307.0
-188.0
-141.0
-265.0
-497.0
-645.0
-600.0
-449.0
-381.0
-473.0
-620.0
-649.0
-532.0
-406.0
-426.0
-592.0
-768.0
-836.0
-806.0
-756.0
-727.0
-689.0
-628.0
-582.0
-598.0
-654.0
-679.0
-648.0
-607.0
-608.0
-654.0
-690.0
-687.0
-664.0
-655.0
-676.0
-721.0
-769.0
-787.0
-742.0
-638.0
-524.0
-457.0
-455.0
-495.0
-554.0
-606.0
-606.0
-504.0
-304.0
-86.0
93.0
289.0
605.0
1038.0
1413.0
1539.0
1413.0
1235.0
1174.0
1188.0
1046.0
581.0
-142.0
-871.0
-1412.0
-1764.0
-2057.0
-2358.0
-2587.0
-2598.0
-2364.0
-1999.0
-1655.0
-1386.0
-1166.0
-969.0
-819.0
-751.0
-762.0
-774.0
-727.0
-641.0
-596.0
-646.0
-761.0
-834.0
-781.0
-629.0
-500.0
-487.0
-564.0
-626.0
-617.0
-580.0
-599.0
-684.0
-765.0
-768.0
-686.0
-556.0
-416.0
-298.0
-241.0
-254.0
-310.0
-354.0
-366.0
-383.0
-449.0
-547.0
-602.0
-565.0
-459.0
-368.0
-353.0
-404.0
-459.0
-476.0
-450.0
-411.0
-385.0
-366.0
-336.0
-301.0
-288.0
-320.0
-378.0
-424.0
-426.0
-397.0
-367.0
-352.0
-326.0
-271.0
-201.0
-169.0
-200.0
-263.0
-292.0
-264.0
-211.0
-183.0
-182.0
-185.0
-172.0
-154.0
-149.0
-161.0
-164.0
-132.0
-44.0
79.0
191.0
240.0
214.0
153.0
111.0
105.0
114.0
120.0
152.0
237.0
342.0
397.0
385.0
362.0
395.0
468.0
494.0
423.0
319.0
295.0
383.0
491.0
497.0
374.0
213.0
130.0
154.0
218.0
233.0
187.0
125.0
104.0
122.0
138.0
103.0
6.0
-127.0
-240.0
-289.0
-265.0
-226.0
-246.0
-351.0
-484.0
-575.0
-613.0
-651.0
-718.0
-777.0
-770.0
-713.0
-688.0
-759.0
-886.0
-984.0
-1018.0
-1030.0
-1067.0
-1135.0
-1186.0
-1180.0
-1102.0
-984.0
-889.0
-887.0
-989.0
-1124.0
-1181.0
-1120.0
-1001.0
-926.0
-933.0
-981.0
-1016.0
-1022.0
-1012.0
-1003.0
-1004.0
-1023.0
-1051.0
-1061.0
-1019.0
-933.0
-859.0
-849.0
-907.0
-982.0
-1029.0
-1033.0
-989.0
-902.0
-801.0
-743.0
-777.0
-872.0
-929.0
-882.0
-781.0
-753.0
-846.0
-952.0
-927.0
-762.0
-601.0
-574.0
-660.0
-727.0
-706.0
-652.0
-653.0
-692.0
-700.0
-650.0
-621.0
-672.0
-763.0
-808.0
-778.0
-726.0
-700.0
-668.0
-587.0
-476.0
-415.0
-435.0
-498.0
-534.0
-537.0
-546.0
-588.0
-621.0
-591.0
-499.0
-423.0
-436.0
-532.0
-630.0
-669.0
-656.0
-644.0
-652.0
-649.0
-595.0
-515.0
-473.0
-500.0
-565.0
-620.0
-650.0
-670.0
-678.0
-653.0
-602.0
-563.0
-577.0
-634.0
-688.0
-703.0
-694.0
-692.0
-709.0
-726.0
-710.0
-655.0
-585.0
-538.0
-552.0
-629.0
-722.0
-758.0
-711.0
-616.0
-557.0
-574.0
-638.0
-684.0
-691.0
-689.0
-718.0
-768.0
-791.0
-748.0
-658.0
-588.0
-591.0
-651.0
-713.0
-727.0
-705.0
-692.0
-715.0
-740.0
-711.0
-614.0
-516.0
-485.0
-535.0
-605.0
-639.0
-632.0
-612.0
-600.0
-583.0
-547.0
-505.0
-486.0
-503.0
-544.0
-597.0
-641.0
-654.0
-601.0
-482.0
-339.0
-228.0
-175.0
-161.0
-152.0
-137.0
-138.0
-165.0
-208.0
-235.0
-225.0
-191.0
-182.0
-227.0
-302.0
-350.0
-352.0
-354.0
-414.0
-508.0
-559.0
-530.0
-489.0
-536.0
-676.0
-800.0
-835.0
-804.0
-785.0
-778.0
-720.0
-597.0
-514.0
-574.0
-738.0
-849.0
-814.0
-714.0
-705.0
-811.0
-901.0
-840.0
-659.0
-522.0
-554.0
-715.0
-860.0
-885.0
-804.0
-704.0
-650.0
-646.0
-671.0
-699.0
-708.0
-685.0
-651.0
-637.0
-650.0
-627.0
-471.0
-169.0
177.0
460.0
686.0
964.0
1335.0
1667.0
1784.0
1671.0
1494.0
1391.0
1302.0
1016.0
415.0
-378.0
-1096.0
-1561.0
-1782.0
-1894.0
-1996.0
-2093.0
-2113.0
-1986.0
-1704.0
-1361.0
-1082.0
-947.0
-933.0
-953.0
-914.0
-800.0
-664.0
-602.0
-671.0
-831.0
-959.0
-968.0
-879.0
-806.0
-815.0
-854.0
-829.0
-736.0
-667.0
-698.0
-787.0
-834.0
-799.0
-730.0
-667.0
-599.0
-515.0
-463.0
-496.0
-591.0
-659.0
-658.0
-637.0
-662.0
-707.0
-688.0
-579.0
-477.0
-480.0
-567.0
-615.0
-557.0
-468.0
-462.0
-535.0
-562.0
-459.0
-297.0
-241.0
-353.0
-521.0
-581.0
-503.0
-406.0
-403.0
-467.0
-486.0
-414.0
-337.0
-347.0
-447.0
-536.0
-549.0
-508.0
-466.0
-429.0
-369.0
-283.0
-217.0
-203.0
-223.0
-230.0
-219.0
-218.0
-228.0
-214.0
-163.0
-106.0
-92.0
-113.0
-129.0
-126.0
-130.0
-156.0
-160.0
-72.0
87.0
207.0
200.0
116.0
85.0
164.0
258.0
242.0
121.0
39.0
114.0
304.0
443.0
424.0
279.0
123.0
41.0
42.0
86.0
122.0
120.0
82.0
48.0
56.0
94.0
95.0
14.0
-124.0
-229.0
-263.0
-257.0
-261.0
-271.0
-267.0
-271.0
-356.0
-519.0
-654.0
-652.0
-554.0
-521.0
-632.0
-785.0
-827.0
-749.0
-707.0
-815.0
-999.0
-1085.0
-1012.0
-885.0
-839.0
-881.0
-926.0
-916.0
-896.0
-921.0
-992.0
-1054.0
-1073.0
-1051.0
-1006.0
-943.0
-882.0
-845.0
-869.0
-938.0
-1004.0
