391.0
439.0
491.0
546.0
588.0
609.0
603.0
598.0
618.0
662.0
695.0
694.0
679.0
695.0
749.0
802.0
801.0
746.0
684.0
668.0
696.0
736.0
764.0
779.0
776.0
739.0
655.0
545.0
463.0
454.0
495.0
524.0
504.0
458.0
438.0
456.0
462.0
393.0
257.0
114.0
16.0
-45.0
-103.0
-162.0
-203.0
-230.0
-285.0
-398.0
-531.0
-617.0
-629.0
-618.0
-633.0
-674.0
-693.0
-676.0
-673.0
-740.0
-854.0
-936.0
-931.0
-871.0
-825.0
-826.0
-833.0
-809.0
-771.0
-772.0
-826.0
-885.0
-885.0
-824.0
-752.0
-721.0
-729.0
-744.0
-739.0
-733.0
-745.0
-776.0
-803.0
-810.0
-793.0
-752.0
-692.0
-631.0
-603.0
-635.0
-701.0
-741.0
-712.0
-645.0
-608.0
-624.0
-640.0
-606.0
-541.0
-525.0
-591.0
-674.0
-681.0
-607.0
-535.0
-522.0
-541.0
-529.0
-487.0
-474.0
-525.0
-584.0
-579.0
-523.0
-485.0
-494.0
-506.0
-460.0
-372.0
-317.0
-351.0
-444.0
-522.0
-529.0
-476.0
-398.0
-342.0
-328.0
-351.0
-382.0
-398.0
-389.0
-379.0
-390.0
-418.0
-423.0
-394.0
-359.0
-354.0
-382.0
-415.0
-426.0
-423.0
-428.0
-441.0
-437.0
-401.0
-346.0
-307.0
-300.0
-326.0
-376.0
-433.0
-459.0
-430.0
-356.0
-291.0
-275.0
-294.0
-303.0
-293.0
-296.0
-333.0
-370.0
-370.0
-348.0
-342.0
-353.0
-333.0
-265.0
-206.0
-231.0
-321.0
-373.0
-330.0
-254.0
-233.0
-269.0
-283.0
-234.0
-179.0
-199.0
-282.0
-344.0
-338.0
-300.0
-278.0
-264.0
-226.0
-180.0
-187.0
-280.0
-388.0
-411.0
-334.0
-248.0
-239.0
-306.0
-360.0
-328.0
-230.0
-163.0
-200.0
-314.0
-397.0
-375.0
-271.0
-181.0
-166.0
-201.0
-222.0
-215.0
-221.0
-271.0
-332.0
-346.0
-302.0
-253.0
-240.0
-255.0
-258.0
-243.0
-241.0
-259.0
-270.0
-243.0
-188.0
-140.0
-117.0
-114.0
-115.0
-130.0
-171.0
-214.0
-220.0
-179.0
-129.0
-114.0
-144.0
-181.0
-190.0
-174.0
-185.0
-255.0
-353.0
-403.0
-368.0
-269.0
-185.0
-165.0
-191.0
-209.0
-202.0
-193.0
-214.0
-257.0
-287.0
-270.0
-219.0
-174.0
-165.0
-189.0
-239.0
-291.0
-322.0
-315.0
-293.0
-288.0
-302.0
-300.0
-255.0
-187.0
-179.0
-261.0
-360.0
-376.0
-306.0
-249.0
-290.0
-385.0
-417.0
-340.0
-259.0
-293.0
-431.0
-527.0
-475.0
-332.0
-242.0
-273.0
-344.0
-350.0
-301.0
-298.0
-395.0
-523.0
-571.0
-515.0
-436.0
-407.0
-421.0
-429.0
-414.0
-415.0
-443.0
-462.0
-431.0
-378.0
-359.0
-384.0
-388.0
-326.0
-247.0
-251.0
-347.0
-427.0
-386.0
-253.0
-145.0
-134.0
-156.0
-127.0
-55.0
-40.0
-124.0
-228.0
-244.0
-165.0
-73.0
-29.0
-1.0
64.0
154.0
189.0
133.0
36.0
-20.0
-14.0
8.0
-10.0
-67.0
-117.0
-127.0
-106.0
-90.0
-104.0
-129.0
-137.0
-122.0
-105.0
-117.0
-165.0
-225.0
-280.0
-344.0
-437.0
-533.0
-580.0
-546.0
-448.0
-358.0
-325.0
-351.0
-395.0
-429.0
-444.0
-446.0
-442.0
-442.0
-448.0
-450.0
-422.0
-358.0
-287.0
-269.0
-323.0
-403.0
-435.0
-402.0
-342.0
-315.0
-339.0
-372.0
-367.0
-328.0
-290.0
-277.0
-271.0
-238.0
-121.0
111.0
446.0
818.0
1167.0
1520.0
1984.0
2582.0
3150.0
3401.0
3198.0
2674.0
2070.0
1450.0
660.0
-419.0
-1616.0
-2560.0
-3003.0
-3015.0
-2824.0
-2554.0
-2164.0
-1618.0
-1022.0
-563.0
-328.0
-246.0
-214.0
-213.0
-290.0
-434.0
-564.0
-598.0
-542.0
-476.0
-456.0
-464.0
-457.0
-419.0
-383.0
-369.0
-358.0
-316.0
-245.0
-187.0
-186.0
-226.0
-256.0
-241.0
-201.0
-173.0
-184.0
-219.0
-247.0
-242.0
-219.0
-212.0
-244.0
-287.0
-302.0
-268.0
-217.0
-184.0
-169.0
-144.0
-114.0
-111.0
-154.0
-203.0
-202.0
-144.0
-78.0
-49.0
-61.0
-77.0
-86.0
-95.0
-101.0
-85.0
-48.0
-13.0
-1.0
3.0
26.0
62.0
69.0
17.0
-58.0
-92.0
-65.0
-16.0
13.0
23.0
50.0
103.0
138.0
105.0
25.0
-28.0
3.0
92.0
166.0
175.0
151.0
152.0
196.0
233.0
226.0
194.0
196.0
244.0
302.0
331.0
342.0
369.0
420.0
448.0
425.0
383.0
382.0
436.0
512.0
565.0
595.0
619.0
640.0
638.0
616.0
604.0
630.0
686.0
739.0
766.0
775.0
779.0
781.0
765.0
717.0
635.0
545.0
495.0
526.0
627.0
723.0
730.0
644.0
540.0
490.0
479.0
434.0
322.0
195.0
126.0
116.0
94.0
-0.0
-147.0
-275.0
-348.0
-396.0
-467.0
-562.0
-626.0
-618.0
-556.0
-521.0
-575.0
-712.0
-843.0
-881.0
-825.0
-759.0
-760.0
-830.0
-894.0
-891.0
-832.0
-798.0
-837.0
-921.0
-978.0
-970.0
-910.0
-845.0
-808.0
-810.0
-841.0
-890.0
-922.0
-912.0
-861.0
-812.0
-799.0
-810.0
-803.0
-753.0
-693.0
-693.0
-764.0
-843.0
-852.0
-798.0
-754.0
-763.0
-777.0
-722.0
-602.0
-518.0
-557.0
-683.0
-774.0
-754.0
-665.0
-602.0
-609.0
-652.0
-679.0
-677.0
-662.0
-640.0
-605.0
-568.0
-557.0
-575.0
-592.0
-582.0
-554.0
-545.0
-579.0
-635.0
-675.0
-678.0
-653.0
-607.0
-550.0
-493.0
-462.0
-468.0
-507.0
-542.0
-543.0
-508.0
-462.0
-424.0
-391.0
-355.0
-331.0
-350.0
-421.0
-502.0
-537.0
-510.0
-464.0
-436.0
-424.0
-398.0
-350.0
-311.0
-314.0
-345.0
-379.0
-405.0
-439.0
-472.0
-468.0
-408.0
-333.0
-315.0
-375.0
-459.0
-494.0
-456.0
-390.0
-350.0
-349.0
-355.0
-341.0
-310.0
-296.0
-330.0
-397.0
-454.0
-458.0
-404.0
-332.0
-293.0
-300.0
-328.0
-346.0
-364.0
-396.0
-440.0
-461.0
-439.0
-380.0
-322.0
-288.0
-268.0
-254.0
-267.0
-315.0
-380.0
-409.0
-392.0
-365.0
-376.0
-416.0
-428.0
-390.0
-358.0
-390.0
-470.0
-508.0
-456.0
-354.0
-296.0
-308.0
-335.0
-317.0
-277.0
-282.0
-351.0
-413.0
-398.0
-314.0
-243.0
-246.0
-295.0
-313.0
-279.0
-247.0
-275.0
-341.0
-387.0
-375.0
-331.0
-298.0
-296.0
-311.0
-326.0
-339.0
-341.0
-325.0
-304.0
-293.0
-289.0
-269.0
-225.0
-195.0
-223.0
-309.0
-395.0
-429.0
-408.0
-371.0
-338.0
-307.0
-275.0
-258.0
-265.0
-285.0
-300.0
-307.0
-310.0
-305.0
-273.0
-220.0
-176.0
-163.0
-169.0
-177.0
-188.0
-222.0
-265.0
-278.0
-226.0
-142.0
-91.0
-110.0
-158.0
-182.0
-180.0
-187.0
-212.0
-237.0
-231.0
-196.0
-158.0
-130.0
-112.0
-122.0
-174.0
-250.0
-287.0
-260.0
-210.0
-198.0
-220.0
-221.0
-180.0
-156.0
-216.0
-325.0
-385.0
-352.0
-281.0
-246.0
-255.0
-264.0
-251.0
-241.0
-256.0
-266.0
-245.0
-211.0
-211.0
-238.0
-241.0
-187.0
-116.0
-92.0
-139.0
-212.0
-259.0
-262.0
-238.0
-195.0
-143.0
-93.0
-77.0
-112.0
-189.0
-260.0
-281.0
-247.0
-201.0
-184.0
-200.0
-197.0
-142.0
-59.0
-18.0
-44.0
-95.0
-96.0
-43.0
9.0
11.0
-13.0
-7.0
36.0
56.0
7.0
-76.0
-99.0
-22.0
104.0
200.0
234.0
245.0
265.0
279.0
255.0
186.0
119.0
92.0
103.0
128.0
144.0
153.0
155.0
137.0
89.0
33.0
5.0
17.0
33.0
19.0
-32.0
-87.0
-122.0
-140.0
-174.0
-229.0
-289.0
-329.0
-338.0
-311.0
-261.0
-224.0
-241.0
-311.0
-382.0
-384.0
-319.0
-263.0
-285.0
-352.0
-368.0
-294.0
-207.0
-212.0
-330.0
-455.0
-479.0
-395.0
-303.0
-272.0
-284.0
-263.0
-187.0
-108.0
-103.0
-169.0
-243.0
-254.0
-165.0
39.0
357.0
758.0
1194.0
1650.0
2168.0
2767.0
3330.0
3632.0
3520.0
3056.0
2438.0
1766.0
955.0
-93.0
-1272.0
-2286.0
-2883.0
-3040.0
-2909.0
-2638.0
-2255.0
-1747.0
-1167.0
-636.0
-271.0
-124.0
-153.0
-268.0
-373.0
-430.0
-457.0
-487.0
-509.0
-479.0
-389.0
-305.0
-294.0
-356.0
-414.0
-416.0
-373.0
-338.0
-331.0
-325.0
-287.0
-233.0
-197.0
-190.0
-196.0
-201.0
-198.0
-182.0
-140.0
-86.0
-52.0
-77.0
-138.0
-176.0
-154.0
-99.0
-64.0
-62.0
-54.0
-18.0
24.0
27.0
-11.0
-50.0
-61.0
-57.0
-61.0
-61.0
-28.0
39.0
97.0
99.0
38.0
-36.0
-68.0
-36.0
30.0
85.0
99.0
95.0
110.0
159.0
202.0
188.0
123.0
73.0
95.0
171.0
223.0
212.0
179.0
181.0
205.0
200.0
154.0
128.0
163.0
233.0
270.0
271.0
292.0
356.0
400.0
366.0
290.0
276.0
363.0
476.0
518.0
495.0
491.0
550.0
606.0
590.0
524.0
498.0
552.0
635.0
677.0
681.0
706.0
777.0
837.0
823.0
747.0
690.0
716.0
807.0
886.0
897.0
846.0
790.0
770.0
769.0
744.0
682.0
618.0
594.0
621.0
659.0
664.0
623.0
554.0
475.0
403.0
342.0
300.0
264.0
222.0
161.0
84.0
3.0
-80.0
-178.0
-294.0
-409.0
-489.0
-523.0
-519.0
-508.0
-515.0
-554.0
-617.0
-695.0
-765.0
-813.0
-827.0
-816.0
-795.0
-777.0
-767.0
-766.0
-769.0
-787.0
-826.0
-881.0
-923.0
-920.0
-871.0
-814.0
-788.0
-797.0
-806.0
-808.0
-819.0
-859.0
-902.0
-905.0
-854.0
-787.0
-750.0
-748.0
-746.0
-735.0
-740.0
-780.0
-823.0
-824.0
-779.0
-734.0
-726.0
-734.0
-714.0
-670.0
-654.0
-683.0
-719.0
-703.0
-636.0
-578.0
-571.0
-592.0
-593.0
-567.0
-557.0
-580.0
-608.0
-591.0
-535.0
-484.0
-479.0
-504.0
-522.0
-519.0
-528.0
-571.0
-628.0
-641.0
-589.0
-500.0
-431.0
-400.0
-394.0
-396.0
-412.0
-449.0
-503.0
-545.0
-562.0
-549.0
-507.0
-441.0
-387.0
-378.0
-417.0
-454.0
-439.0
-382.0
-358.0
-409.0
-479.0
-481.0
-401.0
-314.0
-314.0
-404.0
-491.0
-500.0
-445.0
-399.0
-394.0
-400.0
-379.0
-342.0
-339.0
-391.0
-449.0
-452.0
-396.0
-340.0
-331.0
-349.0
-342.0
-290.0
-242.0
-262.0
-349.0
-444.0
-486.0
-467.0
-416.0
-369.0
-344.0
-345.0
-368.0
-399.0
-414.0
-414.0
-405.0
-400.0
-387.0
-353.0
-305.0
-269.0
-261.0
-283.0
-317.0
-353.0
-383.0
-407.0
-406.0
-372.0
-307.0
-239.0
-202.0
-227.0
-298.0
-362.0
-370.0
-330.0
-296.0
-314.0
-365.0
-398.0
-388.0
-363.0
-371.0
-410.0
-424.0
-382.0
-312.0
-266.0
-264.0
-279.0
-264.0
-219.0
-194.0
-228.0
-308.0
-371.0
-367.0
-304.0
-240.0
-230.0
-282.0
-355.0
-415.0
-441.0
-419.0
-353.0
-281.0
-246.0
-260.0
-280.0
-258.0
-206.0
-204.0
-288.0
-403.0
-452.0
-408.0
-329.0
-286.0
-271.0
-246.0
-208.0
-209.0
-265.0
-325.0
-324.0
-271.0
-229.0
-234.0
-253.0
-244.0
-208.0
-205.0
-264.0
-346.0
-389.0
-368.0
-307.0
-251.0
-218.0
-206.0
-205.0
-225.0
-274.0
-337.0
-376.0
-366.0
-328.0
-311.0
-339.0
-377.0
-357.0
-274.0
-207.0
-232.0
-325.0
-375.0
-313.0
-183.0
-103.0
-121.0
-183.0
-213.0
-215.0
-244.0
-314.0
-367.0
-356.0
-301.0
-263.0
-266.0
-284.0
-279.0
-267.0
-273.0
-284.0
-262.0
-194.0
-109.0
-51.0
-25.0
-9.0
15.0
31.0
15.0
-43.0
-113.0
-148.0
-101.0
15.0
134.0
185.0
170.0
141.0
147.0
168.0
161.0
125.0
108.0
134.0
162.0
135.0
65.0
13.0
6.0
1.0
-51.0
-133.0
-178.0
-164.0
-137.0
-147.0
-201.0
-267.0
-326.0
-371.0
-388.0
-358.0
-294.0
-243.0
-244.0
-287.0
-332.0
-350.0
-364.0
-398.0
-447.0
-483.0
-487.0
-456.0
-397.0
-328.0
-285.0
-301.0
-375.0
-455.0
-486.0
-453.0
-400.0
-371.0
-373.0
-358.0
-293.0
-204.0
-158.0
-192.0
-271.0
-311.0
-258.0
-114.0
85.0
309.0
555.0
864.0
1290.0
1856.0
2475.0
2957.0
3121.0
2950.0
2581.0
2147.0
1605.0
803.0
-291.0
-1450.0
-2327.0
-2729.0
-2739.0
-2566.0
-2321.0
-1978.0
-1500.0
-951.0
-483.0
-212.0
-141.0
-190.0
-281.0
-374.0
-447.0
-492.0
-511.0
-513.0
-510.0
-496.0
-451.0
-388.0
-349.0
-365.0
-409.0
-412.0
-341.0
-250.0
-228.0
-289.0
-344.0
-310.0
-210.0
-156.0
-198.0
-280.0
-297.0
-235.0
-174.0
-197.0
-276.0
-326.0
-294.0
-222.0
-167.0
-152.0
-140.0
-99.0
-39.0
-4.0
-16.0
-63.0
-112.0
-138.0
-129.0
-99.0
-67.0
-50.0
-51.0
-64.0
-69.0
-48.0
-0.0
48.0
70.0
68.0
72.0
101.0
140.0
152.0
118.0
62.0
32.0
43.0
87.0
147.0
204.0
239.0
235.0
189.0
127.0
78.0
57.0
56.0
65.0
93.0
139.0
195.0
243.0
276.0
291.0
283.0
251.0
224.0
232.0
296.0
384.0
449.0
465.0
453.0
439.0
440.0
456.0
485.0
521.0
557.0
584.0
614.0
661.0
719.0
746.0
723.0
681.0
690.0
767.0
864.0
904.0
878.0
843.0
854.0
876.0
834.0
717.0
619.0
623.0
718.0
797.0
781.0
700.0
647.0
644.0
626.0
535.0
410.0
336.0
341.0
358.0
311.0
203.0
99.0
32.0
-38.0
-152.0
-288.0
-392.0
-439.0
-451.0
-456.0
-457.0
-457.0
-493.0
-599.0
-739.0
-824.0
-805.0
-739.0
-726.0
-801.0
-887.0
-905.0
-862.0
-844.0
-890.0
-955.0
-965.0
-918.0
-874.0
-867.0
-857.0
-802.0
-735.0
-738.0
-829.0
-928.0
-937.0
-854.0
-760.0
-725.0
-733.0
-731.0
-699.0
-677.0
-694.0
-730.0
-737.0
-710.0
-678.0
-669.0
-668.0
-655.0
-634.0
-646.0
-704.0
-764.0
-764.0
-703.0
-642.0
-628.0
-644.0
-632.0
-574.0
-531.0
-573.0
-680.0
-752.0
-719.0
-612.0
-522.0
-502.0
-523.0
-526.0
-501.0
-487.0
-510.0
-553.0
-574.0
-564.0
-535.0
-508.0
-484.0
-450.0
-416.0
-414.0
-459.0
-517.0
-519.0
-446.0
-347.0
-308.0
-347.0
-407.0
-416.0
-384.0
-372.0
-418.0
-481.0
-508.0
-476.0
-420.0
-378.0
-371.0
-394.0
-442.0
-486.0
-500.0
-476.0
-446.0
-440.0
-443.0
-416.0
-355.0
-311.0
-344.0
-441.0
-523.0
-533.0
-489.0
-449.0
-435.0
-423.0
-392.0
-357.0
-349.0
-377.0
-414.0
-428.0
-418.0
-402.0
-394.0
-394.0
-394.0
-385.0
-368.0
-361.0
-379.0
-417.0
-443.0
-422.0
-348.0
-263.0
-218.0
-235.0
-292.0
-356.0
-396.0
-405.0
-390.0
-378.0
-385.0
-400.0
-383.0
-324.0
-263.0
-271.0
-350.0
-428.0
-417.0
-330.0
-257.0
-270.0
-332.0
-352.0
-298.0
-240.0
-255.0
-341.0
-418.0
-420.0
-350.0
-277.0
-251.0
-281.0
-333.0
-371.0
-372.0
-349.0
-336.0
-361.0
-401.0
-397.0
-319.0
-217.0
-179.0
-240.0
-332.0
-360.0
-304.0
-232.0
-216.0
-243.0
-250.0
-219.0
-192.0
-225.0
-309.0
-374.0
-379.0
-347.0
-330.0
-333.0
-315.0
-259.0
-202.0
-199.0
-261.0
-334.0
-366.0
-356.0
-352.0
-363.0
-353.0
-288.0
-204.0
-175.0
-247.0
-360.0
-409.0
-356.0
-277.0
-258.0
-306.0
-343.0
-309.0
-234.0
-208.0
-253.0
-307.0
-296.0
-231.0
-180.0
-180.0
-195.0
-179.0
-139.0
-133.0
-183.0
-242.0
-251.0
-200.0
-133.0
-84.0
-50.0
-21.0
-9.0
-43.0
-115.0
-170.0
-156.0
-82.0
-8.0
24.0
26.0
37.0
71.0
97.0
74.0
-1.0
-88.0
-132.0
-117.0
-68.0
-33.0
-33.0
-60.0
-84.0
-94.0
-100.0
-134.0
-205.0
-293.0
-352.0
-353.0
-312.0
-299.0
-357.0
-475.0
-568.0
-566.0
-480.0
-410.0
-420.0
-478.0
-489.0
-421.0
-340.0
-342.0
-427.0
-505.0
-504.0
-455.0
-426.0
-436.0
-437.0
-398.0
-353.0
-361.0
-414.0
-452.0
-437.0
-392.0
-349.0
-300.0
-225.0
-139.0
-91.0
-109.0
-155.0
-142.0
1.0
275.0
619.0
982.0
1377.0
1860.0
2430.0
2937.0
3151.0
2963.0
2484.0
1915.0
1318.0
580.0
-382.0
-1428.0
-2267.0
-2716.0
-2840.0
-2798.0
-2639.0
-2296.0
-1765.0
-1173.0
-689.0
-374.0
-196.0
-135.0
-210.0
-390.0
-563.0
-618.0
-572.0
-516.0
-500.0
-467.0
-356.0
-212.0
-162.0
-251.0
-383.0
-419.0
-335.0
-232.0
-207.0
-235.0
-233.0
-171.0
-129.0
-172.0
-266.0
-308.0
-269.0
-210.0
-198.0
-210.0
-180.0
-103.0
-56.0
-100.0
-196.0
-252.0
-230.0
-166.0
-104.0
-56.0
-19.0
-11.0
-55.0
-122.0
-145.0
-93.0
-19.0
-9.0
-74.0
-136.0
-117.0
-24.0
55.0
48.0
-27.0
-88.0
-71.0
11.0
101.0
152.0
162.0
153.0
137.0
106.0
64.0
29.0
27.0
51.0
82.0
96.0
104.0
126.0
166.0
196.0
188.0
147.0
121.0
147.0
222.0
295.0
324.0
314.0
304.0
314.0
336.0
340.0
325.0
310.0
319.0
363.0
429.0
489.0
517.0
503.0
480.0
494.0
556.0
617.0
620.0
576.0
564.0
635.0
745.0
787.0
714.0
599.0
568.0
653.0
774.0
830.0
798.0
747.0
737.0
747.0
706.0
603.0
499.0
460.0
476.0
493.0
470.0
423.0
377.0
336.0
270.0
174.0
69.0
-28.0
-108.0
-171.0
-216.0
-254.0
-307.0
-377.0
-457.0
-533.0
-611.0
-692.0
-753.0
-748.0
-690.0
-651.0
-698.0
-811.0
-917.0
-962.0
-969.0
-980.0
-999.0
-992.0
-947.0
-899.0
-889.0
-914.0
-942.0
-952.0
-948.0
-947.0
-961.0
-972.0
-950.0
-879.0
-784.0
-731.0
-766.0
-872.0
-965.0
-973.0
-905.0
-828.0
-787.0
-769.0
-742.0
-704.0
-689.0
-715.0
-760.0
-785.0
-785.0
-790.0
-818.0
-842.0
-814.0
-734.0
-661.0
-669.0
-749.0
-812.0
-767.0
-638.0
-528.0
-525.0
-602.0
-667.0
-663.0
-637.0
-663.0
-748.0
-814.0
-800.0
-714.0
-634.0
-606.0
-611.0
-595.0
-556.0
-545.0
-595.0
-671.0
-701.0
-647.0
-552.0
-487.0
-490.0
-529.0
-562.0
-570.0
-557.0
-523.0
-484.0
-461.0
-471.0
-502.0
-511.0
-478.0
-441.0
-454.0
-526.0
-600.0
-612.0
-553.0
-460.0
-383.0
-342.0
-340.0
-365.0
-397.0
-413.0
-401.0
-378.0
-369.0
-375.0
-377.0
-357.0
-321.0
-295.0
-304.0
-346.0
-396.0
-420.0
-404.0
-357.0
-309.0
-289.0
-306.0
-343.0
-384.0
-417.0
-437.0
-440.0
-434.0
-423.0
-412.0
-391.0
-359.0
-325.0
-322.0
-352.0
-386.0
-381.0
-337.0
-293.0
-290.0
-312.0
-317.0
-294.0
-297.0
-360.0
-447.0
-469.0
-403.0
-307.0
-259.0
-265.0
-276.0
-262.0
-260.0
-307.0
-372.0
-387.0
-336.0
-278.0
-265.0
-283.0
-280.0
-234.0
-190.0
-205.0
-278.0
-353.0
-375.0
-338.0
-277.0
-233.0
-218.0
-213.0
-204.0
-206.0
-229.0
-264.0
-279.0
-256.0
-211.0
-188.0
-199.0
-214.0
-203.0
-181.0
-182.0
-216.0
-244.0
-234.0
-196.0
-167.0
-158.0
-156.0
-153.0
-180.0
-245.0
-309.0
-314.0
-255.0
-194.0
-180.0
-191.0
-185.0
-157.0
-162.0
-225.0
-298.0
-316.0
-286.0
-268.0
-284.0
-285.0
-230.0
-155.0
-148.0
-231.0
-322.0
-327.0
-260.0
-206.0
-207.0
-228.0
-216.0
-187.0
-201.0
-275.0
-349.0
-359.0
-318.0
-287.0
-290.0
-285.0
-224.0
-136.0
-105.0
-179.0
-301.0
-367.0
-335.0
-268.0
-243.0
-270.0
-283.0
-242.0
-184.0
-184.0
-252.0
-322.0
-321.0
-265.0
-217.0
-221.0
-240.0
-222.0
-175.0
-166.0
-228.0
-308.0
-317.0
-245.0
-156.0
-130.0
-162.0
-197.0
-197.0
-202.0
-257.0
-345.0
-393.0
-366.0
-300.0
-255.0
-240.0
-216.0
-156.0
-105.0
-115.0
-178.0
-215.0
-170.0
-71.0
-2.0
-13.0
-78.0
-133.0
-139.0
-103.0
-54.0
-21.0
-18.0
-22.0
7.0
84.0
164.0
177.0
96.0
-24.0
-91.0
-73.0
-26.0
-24.0
-64.0
-86.0
-43.0
28.0
55.0
-12.0
-133.0
-243.0
-299.0
-323.0
-349.0
-396.0
-439.0
-457.0
-458.0
-483.0
-538.0
-587.0
-581.0
-524.0
-465.0
-448.0
-459.0
-460.0
-441.0
-445.0
-497.0
-573.0
-615.0
-608.0
-573.0
-536.0
-490.0
-424.0
-357.0
-330.0
-354.0
-390.0
-389.0
-346.0
-289.0
-241.0
-202.0
-170.0
-150.0
-135.0
-76.0
95.0
399.0
776.0
1170.0
1601.0
2134.0
2741.0
3229.0
3357.0
3038.0
2428.0
1742.0
1042.0
210.0
-815.0
-1871.0
-2655.0
-2988.0
-2949.0
-2753.0
-2509.0
-2166.0
-1655.0
-1051.0
-524.0
-208.0
-96.0
-111.0
-188.0
-318.0
-478.0
-605.0
-632.0
-563.0
-457.0
-375.0
-325.0
-282.0
-233.0
-215.0
-263.0
-362.0
-432.0
-415.0
-321.0
-225.0
-180.0
-171.0
-146.0
-108.0
-117.0
-205.0
-307.0
-316.0
-209.0
-84.0
-50.0
-113.0
-178.0
-177.0
-142.0
-140.0
-172.0
-184.0
-148.0
-96.0
-69.0
-52.0
-16.0
18.0
-10.0
-108.0
-196.0
-186.0
-92.0
-5.0
2.0
-50.0
-77.0
-43.0
11.0
20.0
-32.0
-87.0
-77.0
7.0
91.0
112.0
73.0
43.0
48.0
59.0
28.0
-21.0
-23.0
53.0
139.0
165.0
139.0
139.0
190.0
235.0
208.0
137.0
104.0
152.0
231.0
275.0
271.0
254.0
237.0
213.0
187.0
200.0
265.0
343.0
384.0
389.0
412.0
480.0
542.0
534.0
466.0
426.0
465.0
550.0
602.0
595.0
579.0
607.0
658.0
673.0
629.0
581.0
590.0
653.0
719.0
747.0
737.0
711.0
675.0
621.0
559.0
511.0
485.0
466.0
450.0
438.0
426.0
385.0
301.0
188.0
86.0
14.0
-47.0
-130.0
-219.0
-277.0
-293.0
-309.0
-373.0
-497.0
-637.0
-740.0
-781.0
-782.0
-773.0
-776.0
-792.0
-808.0
-814.0
-819.0
-839.0
-876.0
-913.0
-934.0
-931.0
-913.0
