-724.0
-583.0
-494.0
-473.0
-441.0
-363.0
-326.0
-425.0
-584.0
-621.0
-449.0
-216.0
-150.0
-317.0
-542.0
-643.0
-618.0
-623.0
-730.0
-841.0
-823.0
-666.0
-495.0
-396.0
-378.0
-416.0
-468.0
-491.0
-478.0
-487.0
-586.0
-744.0
-804.0
-662.0
-426.0
-335.0
-479.0
-677.0
-711.0
-568.0
-437.0
-426.0
-456.0
-404.0
-305.0
-313.0
-476.0
-674.0
-771.0
-761.0
-701.0
-618.0
-527.0
-467.0
-486.0
-549.0
-556.0
-475.0
-411.0
-456.0
-585.0
-657.0
-589.0
-432.0
-309.0
-278.0
-330.0
-419.0
-495.0
-530.0
-534.0
-534.0
-549.0
-561.0
-555.0
-527.0
-522.0
-551.0
-589.0
-592.0
-550.0
-482.0
-404.0
-332.0
-290.0
-289.0
-316.0
-346.0
-352.0
-315.0
-259.0
-206.0
-149.0
-76.0
26.0
121.0
136.0
37.0
-121.0
-217.0
-191.0
-92.0
-24.0
-29.0
-44.0
-10.0
25.0
-23.0
-137.0
-222.0
-216.0
-188.0
-249.0
-376.0
-446.0
-403.0
-335.0
-378.0
-541.0
-712.0
-779.0
-740.0
-664.0
-597.0
-536.0
-500.0
-540.0
-656.0
-742.0
-706.0
-568.0
-476.0
-525.0
-641.0
-672.0
-570.0
-440.0
-430.0
-567.0
-748.0
-852.0
-844.0
-754.0
-642.0
-557.0
-541.0
-568.0
-587.0
-581.0
-588.0
-652.0
-737.0
-739.0
-619.0
-457.0
-381.0
-426.0
-514.0
-554.0
-548.0
-561.0
-610.0
-624.0
-536.0
-369.0
-239.0
-206.0
-218.0
-205.0
-158.0
-155.0
-231.0
-294.0
-186.0
152.0
611.0
1014.0
1329.0
1676.0
2188.0
2846.0
3467.0
3833.0
3862.0
3638.0
3295.0
2825.0
2075.0
891.0
-667.0
-2262.0
-3487.0
-4205.0
-4587.0
-4894.0
-5159.0
-5184.0
-4804.0
-4126.0
-3449.0
-2969.0
-2626.0
-2247.0
-1790.0
-1390.0
-1158.0
-1062.0
-965.0
-812.0
-674.0
-643.0
-695.0
-709.0
-595.0
-392.0
-201.0
-111.0
-139.0
-238.0
-320.0
-341.0
-328.0
-333.0
-354.0
-331.0
-231.0
-96.0
-39.0
-96.0
-181.0
-191.0
-130.0
-82.0
-86.0
-78.0
-2.0
91.0
102.0
22.0
-57.0
-58.0
-59.0
-185.0
-410.0
-525.0
-376.0
-66.0
129.0
64.0
-137.0
-232.0
-146.0
-17.0
-2.0
-79.0
-100.0
13.0
172.0
238.0
163.0
35.0
-31.0
9.0
81.0
91.0
-13.0
-139.0
-133.0
52.0
270.0
320.0
169.0
9.0
39.0
234.0
401.0
426.0
363.0
338.0
352.0
336.0
280.0
265.0
338.0
447.0
519.0
560.0
608.0
668.0
710.0
731.0
765.0
821.0
855.0
842.0
841.0
934.0
1109.0
1243.0
1224.0
1074.0
923.0
889.0
979.0
1117.0
1241.0
1315.0
1340.0
1326.0
1283.0
1229.0
1208.0
1218.0
1201.0
1097.0
939.0
872.0
999.0
1219.0
1294.0
1093.0
752.0
504.0
434.0
396.0
268.0
122.0
87.0
129.0
90.0
-106.0
-324.0
-414.0
-415.0
-497.0
-698.0
-867.0
-867.0
-762.0
-735.0
-861.0
-1046.0
-1173.0
-1203.0
-1196.0
-1202.0
-1237.0
-1303.0
-1393.0
-1458.0
-1458.0
-1447.0
-1529.0
-1700.0
-1803.0
-1700.0
-1465.0
-1327.0
-1401.0
-1558.0
-1589.0
-1464.0
-1364.0
-1457.0
-1652.0
-1725.0
-1579.0
-1349.0
-1236.0
-1290.0
-1407.0
-1485.0
-1508.0
-1516.0
-1510.0
-1481.0
-1426.0
-1348.0
-1229.0
-1073.0
-986.0
-1063.0
-1237.0
-1312.0
-1174.0
-967.0
-932.0
-1105.0
-1241.0
-1135.0
-903.0
-854.0
-1081.0
-1340.0
-1375.0
-1219.0
-1091.0
-1102.0
-1127.0
-1032.0
-877.0
-837.0
-946.0
-1085.0
-1156.0
-1184.0
-1229.0
-1227.0
-1084.0
-852.0
-708.0
-771.0
-943.0
-1018.0
-919.0
-762.0
-714.0
-793.0
-879.0
-871.0
-782.0
-712.0
-746.0
-858.0
-968.0
-1010.0
-989.0
-939.0
-884.0
-805.0
-702.0
-622.0
-637.0
-763.0
-916.0
-969.0
-884.0
-728.0
-618.0
-621.0
-701.0
-745.0
-708.0
-640.0
-637.0
-741.0
-876.0
-910.0
-777.0
-550.0
-394.0
-421.0
-600.0
-769.0
-784.0
-661.0
-540.0
-547.0
-654.0
-712.0
-656.0
-566.0
-584.0
-719.0
-849.0
-858.0
-776.0
-706.0
-679.0
-633.0
-536.0
-457.0
-499.0
-652.0
-782.0
-784.0
-698.0
-658.0
-724.0
-803.0
-755.0
-590.0
-469.0
-539.0
-749.0
-899.0
-860.0
-698.0
-579.0
-564.0
-566.0
-523.0
-478.0
-520.0
-615.0
-662.0
-630.0
-590.0
-595.0
-606.0
-570.0
-511.0
-495.0
-538.0
-591.0
-633.0
-685.0
-742.0
-717.0
-574.0
-401.0
-341.0
-422.0
-530.0
-563.0
-563.0
-605.0
-681.0
-698.0
-648.0
-607.0
-657.0
-756.0
-755.0
-627.0
-512.0
-564.0
-750.0
-841.0
-657.0
-303.0
-100.0
-226.0
-501.0
-593.0
-427.0
-282.0
-431.0
-776.0
-952.0
-770.0
-462.0
-387.0
-598.0
-801.0
-745.0
-501.0
-322.0
-333.0
-413.0
-410.0
-324.0
-284.0
-364.0
-517.0
-646.0
-687.0
-656.0
-606.0
-578.0
-573.0
-518.0
-372.0
-213.0
-203.0
-388.0
-631.0
-734.0
-651.0
-508.0
-444.0
-436.0
-388.0
-291.0
-255.0
-352.0
-519.0
-627.0
-620.0
-547.0
-475.0
-427.0
-403.0
-400.0
-429.0
-467.0
-506.0
-559.0
-645.0
-716.0
-709.0
-611.0
-498.0
-459.0
-496.0
-540.0
-518.0
-441.0
-370.0
-345.0
-352.0
-335.0
-283.0
-249.0
-292.0
-412.0
-543.0
-585.0
-527.0
-437.0
-384.0
-373.0
-359.0
-321.0
-286.0
-304.0
-379.0
-464.0
-477.0
-368.0
-179.0
-23.0
5.0
-81.0
-187.0
-250.0
-294.0
-362.0
-423.0
-413.0
-319.0
-181.0
-45.0
62.0
132.0
146.0
119.0
82.0
56.0
14.0
-40.0
-61.0
-6.0
70.0
26.0
-172.0
-345.0
-325.0
-170.0
-122.0
-272.0
-424.0
-356.0
-134.0
-48.0
-257.0
-566.0
-669.0
-542.0
-438.0
-535.0
-702.0
-678.0
-443.0
-243.0
-311.0
-582.0
-805.0
-841.0
-769.0
-738.0
-780.0
-817.0
-797.0
-742.0
-697.0
-672.0
-644.0
-631.0
-650.0
-671.0
-646.0
-574.0
-531.0
-571.0
-653.0
-700.0
-687.0
-679.0
-723.0
-774.0
-730.0
-555.0
-348.0
-278.0
-391.0
-579.0
-654.0
-557.0
-411.0
-387.0
-493.0
-574.0
-472.0
-223.0
-20.0
-33.0
-215.0
-364.0
-314.0
-72.0
236.0
516.0
822.0
1224.0
1726.0
2249.0
2711.0
3092.0
3365.0
3435.0
3234.0
2811.0
2285.0
1634.0
676.0
-695.0
-2248.0
-3522.0
-4244.0
-4575.0
-4844.0
-5112.0
-5102.0
-4590.0
-3732.0
-2935.0
-2429.0
-2119.0
-1804.0
-1455.0
-1185.0
-1034.0
-911.0
-747.0
-589.0
-513.0
-512.0
-492.0
-425.0
-368.0
-352.0
-306.0
-187.0
-69.0
-89.0
-255.0
-407.0
-381.0
-212.0
-89.0
-112.0
-176.0
-124.0
53.0
186.0
146.0
-21.0
-149.0
-165.0
-113.0
-82.0
-71.0
-16.0
91.0
179.0
181.0
91.0
-23.0
-93.0
-96.0
-68.0
-53.0
-56.0
-36.0
38.0
153.0
238.0
234.0
147.0
65.0
58.0
112.0
151.0
153.0
146.0
148.0
137.0
65.0
-46.0
-100.0
-28.0
123.0
234.0
243.0
209.0
239.0
354.0
460.0
435.0
250.0
32.0
-49.0
90.0
349.0
524.0
484.0
308.0
205.0
303.0
503.0
606.0
521.0
390.0
409.0
611.0
831.0
908.0
850.0
789.0
805.0
840.0
811.0
766.0
816.0
986.0
1144.0
1157.0
1043.0
954.0
993.0
1101.0
1156.0
1160.0
1209.0
1333.0
1431.0
1401.0
1270.0
1174.0
1157.0
1144.0
1056.0
955.0
959.0
1072.0
1145.0
1043.0
809.0
625.0
599.0
635.0
552.0
288.0
-13.0
-145.0
-57.0
76.0
21.0
-270.0
-626.0
-832.0
-820.0
-705.0
-639.0
-672.0
-776.0
-906.0
-1055.0
-1182.0
-1238.0
-1234.0
-1246.0
-1350.0
-1489.0
-1526.0
-1385.0
-1150.0
-998.0
-1027.0
-1185.0
-1346.0
-1435.0
-1454.0
-1420.0
-1341.0
-1233.0
-1164.0
-1200.0
-1334.0
-1462.0
-1470.0
-1348.0
-1229.0
-1216.0
-1289.0
-1329.0
-1268.0
-1147.0
-1079.0
-1116.0
-1199.0
-1258.0
-1271.0
-1259.0
-1212.0
-1115.0
-997.0
-940.0
-1014.0
-1192.0
-1370.0
-1444.0
-1400.0
-1281.0
-1146.0
-1052.0
-1033.0
-1082.0
-1111.0
-1044.0
-920.0
-868.0
-956.0
-1087.0
-1088.0
-943.0
-814.0
-850.0
-998.0
-1062.0
-978.0
-910.0
-1017.0
-1226.0
-1288.0
-1095.0
-820.0
-738.0
-891.0
-1073.0
-1090.0
-970.0
-876.0
-874.0
-874.0
-809.0
-728.0
-732.0
-812.0
-862.0
-819.0
-771.0
-806.0
-905.0
-929.0
-799.0
-593.0
-472.0
-508.0
-648.0
-774.0
-823.0
-822.0
-836.0
-889.0
-933.0
-889.0
-745.0
-581.0
-535.0
-643.0
-783.0
-780.0
-610.0
-447.0
-467.0
-621.0
-695.0
-572.0
-404.0
-456.0
-760.0
-1022.0
-937.0
-545.0
-213.0
-233.0
-516.0
-713.0
-636.0
-437.0
-393.0
-592.0
-839.0
-902.0
-745.0
-524.0
-400.0
-399.0
-430.0
-441.0
-475.0
-582.0
-708.0
-726.0
-579.0
-385.0
-325.0
-455.0
-615.0
-628.0
-496.0
-407.0
-497.0
-683.0
-770.0
-692.0
-549.0
-461.0
-447.0
-467.0
-491.0
-536.0
-598.0
-635.0
-605.0
-524.0
-432.0
-364.0
-335.0
-356.0
-402.0
-425.0
-411.0
-410.0
-481.0
-603.0
-673.0
-617.0
-484.0
-393.0
-426.0
-550.0
-654.0
-651.0
-530.0
-374.0
-287.0
-311.0
-394.0
-453.0
-468.0
-491.0
-576.0
-698.0
-782.0
-764.0
-648.0
-503.0
-415.0
-415.0
-485.0
-555.0
-567.0
-519.0
-462.0
-430.0
-425.0
-435.0
-461.0
-466.0
-410.0
-319.0
-323.0
-485.0
-662.0
-611.0
-312.0
-35.0
-76.0
-385.0
-638.0
-624.0
-471.0
-417.0
-501.0
-554.0
-492.0
-407.0
-393.0
-404.0
-360.0
-309.0
-376.0
-544.0
-635.0
-508.0
-268.0
-127.0
-164.0
-262.0
-308.0
-332.0
-428.0
-593.0
-711.0
-685.0
-548.0
-427.0
-399.0
-412.0
-375.0
-286.0
-238.0
-297.0
-418.0
-494.0
-470.0
-384.0
-298.0
-257.0
-294.0
-429.0
-617.0
-720.0
-630.0
-423.0
-297.0
-357.0
-482.0
-467.0
-295.0
-167.0
-259.0
-500.0
-677.0
-677.0
-572.0
-478.0
-416.0
-351.0
-298.0
-337.0
-461.0
-560.0
-516.0
-371.0
-273.0
-306.0
-385.0
-385.0
-300.0
-263.0
-366.0
-550.0
-666.0
-654.0
-570.0
-493.0
-432.0
-385.0
-373.0
-419.0
-462.0
-413.0
-302.0
-285.0
-421.0
-560.0
-484.0
-224.0
-66.0
-207.0
-503.0
-649.0
-545.0
-384.0
-358.0
-405.0
-333.0
-129.0
7.0
-63.0
-228.0
-256.0
-109.0
33.0
-0.0
-147.0
-202.0
-75.0
107.0
168.0
90.0
-12.0
-71.0
-125.0
-208.0
-254.0
-168.0
26.0
152.0
93.0
-64.0
-132.0
-47.0
60.0
32.0
-116.0
-250.0
-300.0
-326.0
-417.0
-566.0
-684.0
-710.0
-657.0
-561.0
-448.0
-371.0
-365.0
-425.0
-481.0
-496.0
-505.0
-596.0
-784.0
-954.0
-976.0
-820.0
-589.0
-432.0
-425.0
-546.0
-701.0
-802.0
-821.0
-806.0
-813.0
-833.0
-813.0
-707.0
-557.0
-471.0
-514.0
-633.0
-699.0
-637.0
-528.0
-496.0
-570.0
-647.0
-608.0
-463.0
-357.0
-410.0
-575.0
-706.0
-699.0
-587.0
-454.0
-352.0
-276.0
-220.0
-235.0
-327.0
-406.0
-345.0
-118.0
173.0
408.0
606.0
907.0
1405.0
2034.0
2639.0
3075.0
3312.0
3399.0
3363.0
3175.0
2760.0
2017.0
901.0
-496.0
-1936.0
-3179.0
-4086.0
-4679.0
-5037.0
-5184.0
-5053.0
-4593.0
-3881.0
-3113.0
-2500.0
-2118.0
-1878.0
-1597.0
-1210.0
-841.0
-681.0
-764.0
-892.0
-844.0
-620.0
-445.0
-496.0
-668.0
-691.0
-433.0
-71.0
98.0
-24.0
-243.0
-335.0
-265.0
-183.0
-230.0
-358.0
-422.0
-349.0
-214.0
-113.0
-77.0
-76.0
-77.0
-84.0
-82.0
-53.0
-0.0
23.0
-6.0
-36.0
-4.0
49.0
16.0
-144.0
-314.0
-316.0
-114.0
129.0
221.0
127.0
5.0
8.0
125.0
196.0
101.0
-100.0
-208.0
-107.0
109.0
214.0
110.0
-83.0
-145.0
-5.0
172.0
191.0
57.0
-34.0
76.0
311.0
463.0
416.0
258.0
154.0
165.0
226.0
277.0
323.0
368.0
386.0
355.0
318.0
327.0
368.0
366.0
288.0
230.0
320.0
540.0
741.0
774.0
682.0
615.0
656.0
747.0
787.0
769.0
791.0
910.0
1073.0
1163.0
1148.0
1084.0
1048.0
1048.0
1037.0
1013.0
1046.0
1206.0
1455.0
1617.0
1564.0
1354.0
1182.0
1167.0
1219.0
1168.0
1001.0
887.0
956.0
1111.0
1123.0
926.0
674.0
545.0
537.0
497.0
361.0
199.0
115.0
93.0
34.0
-108.0
-281.0
-435.0
-568.0
-710.0
-833.0
-882.0
-869.0
-857.0
-905.0
-996.0
-1082.0
-1151.0
-1235.0
-1325.0
-1331.0
-1189.0
-992.0
-943.0
-1132.0
-1386.0
-1446.0
-1269.0
-1106.0
-1218.0
-1535.0
-1703.0
-1521.0
-1185.0
-1052.0
-1204.0
-1393.0
-1371.0
-1195.0
-1119.0
-1238.0
-1379.0
-1364.0
-1227.0
-1151.0
-1218.0
-1328.0
-1359.0
-1323.0
-1306.0
-1339.0
-1323.0
-1181.0
-971.0
-858.0
-925.0
-1082.0
-1176.0
-1152.0
-1101.0
-1124.0
-1186.0
-1178.0
-1076.0
-988.0
-1009.0
-1075.0
-1069.0
-1007.0
-1031.0
-1190.0
-1306.0
-1156.0
-770.0
-482.0
-551.0
-851.0
-1016.0
-861.0
-613.0
-628.0
-959.0
-1274.0
-1243.0
-927.0
-699.0
-790.0
-1040.0
-1128.0
-972.0
-814.0
-898.0
-1123.0
-1198.0
-992.0
-720.0
-669.0
-855.0
-1030.0
-999.0
-819.0
-681.0
-659.0
-673.0
-645.0
-605.0
-618.0
-685.0
-764.0
-856.0
-960.0
-1003.0
-888.0
-660.0
-501.0
-554.0
-714.0
-748.0
-594.0
-466.0
-591.0
-908.0
-1092.0
-937.0
-587.0
-384.0
-478.0
-703.0
-798.0
-719.0
-630.0
-681.0
-809.0
-845.0
-729.0
-585.0
-573.0
-718.0
-873.0
-880.0
-751.0
-629.0
-645.0
-764.0
-825.0
-724.0
-528.0
-412.0
-475.0
-652.0
-784.0
-765.0
-623.0
-478.0
-434.0
-486.0
-565.0
-604.0
-611.0
-662.0
-785.0
-883.0
-840.0
-657.0
-486.0
-463.0
-567.0
-641.0
-601.0
-526.0
-552.0
-679.0
-786.0
-787.0
-716.0
-646.0
-596.0
-522.0
-472.0
-527.0
-687.0
-827.0
-817.0
-675.0
-544.0
-498.0
-503.0
-510.0
-543.0
-641.0
-751.0
-773.0
-710.0
-660.0
-689.0
-726.0
-667.0
-537.0
-482.0
-571.0
-699.0
-729.0
-650.0
-571.0
-568.0
-591.0
-561.0
-479.0
-419.0
-429.0
-500.0
-604.0
-704.0
-751.0
-694.0
-545.0
-392.0
-334.0
-386.0
-480.0
-539.0
-536.0
-502.0
-480.0
-484.0
-503.0
-481.0
-412.0
-367.0
-419.0
-547.0
-648.0
-648.0
-596.0
-594.0
-654.0
-654.0
-504.0
-299.0
-230.0
-363.0
-546.0
-578.0
-447.0
-316.0
-317.0
-423.0
-507.0
-509.0
-502.0
-555.0
-648.0
-691.0
-640.0
-540.0
-452.0
-391.0
-336.0
-293.0
-319.0
-434.0
-551.0
-543.0
-408.0
-284.0
-311.0
-471.0
-583.0
-513.0
-347.0
-316.0
-524.0
-824.0
-968.0
-850.0
-552.0
-286.0
-223.0
-348.0
-494.0
-498.0
-359.0
-264.0
-354.0
-553.0
-629.0
-466.0
-223.0
-149.0
-272.0
-384.0
-326.0
-218.0
-284.0
-530.0
-710.0
-633.0
-402.0
-292.0
-399.0
-572.0
-618.0
-528.0
-435.0
-423.0
-435.0
-388.0
-291.0
-224.0
-247.0
-338.0
-420.0
-443.0
-406.0
-357.0
-340.0
-342.0
-298.0
-169.0
8.0
131.0
128.0
17.0
-119.0
-186.0
-101.0
107.0
294.0
293.0
84.0
-163.0
-243.0
-138.0
-39.0
-118.0
-292.0
-322.0
-101.0
184.0
236.0
-5.0
-313.0
-438.0
-392.0
-391.0
-579.0
-846.0
-958.0
-811.0
-548.0
-401.0
-474.0
-661.0
-792.0
-786.0
-703.0
-633.0
-612.0
-611.0
-626.0
-690.0
-778.0
-832.0
-791.0
-702.0
-685.0
-771.0
-838.0
-756.0
-560.0
-429.0
-498.0
-685.0
-805.0
-752.0
-609.0
-519.0
-523.0
-544.0
-530.0
-524.0
-578.0
-654.0
-671.0
-614.0
-587.0
-630.0
-653.0
-526.0
-295.0
-168.0
-288.0
-551.0
-707.0
-635.0
-467.0
-394.0
-392.0
-286.0
29.0
441.0
781.0
1046.0
1396.0
1931.0
2543.0
3016.0
3246.0
3311.0
3322.0
3247.0
2905.0
2124.0
919.0
-522.0
-1920.0
-3072.0
-3904.0
-4480.0
-4909.0
-5235.0
-5363.0
-5148.0
-4564.0
-3795.0
-3105.0
-2623.0
-2238.0
-1802.0
-1340.0
-1041.0
-995.0
-1064.0
-1041.0
-919.0
-854.0
-916.0
-954.0
-785.0
-443.0
-178.0
-157.0
-293.0
-377.0
-343.0
-293.0
-310.0
-324.0
-224.0
-45.0
58.0
9.0
-99.0
-110.0
-10.0
67.0
7.0
-115.0
-135.0
14.0
203.0
249.0
112.0
-55.0
-112.0
-67.0
-43.0
-91.0
-110.0
-3.0
163.0
230.0
126.0
-35.0
-82.0
13.0
129.0
164.0
142.0
130.0
154.0
173.0
149.0
97.0
37.0
-53.0
-175.0
-273.0
-232.0
-24.0
235.0
366.0
307.0
172.0
126.0
196.0
272.0
250.0
177.0
183.0
307.0
449.0
489.0
418.0
349.0
332.0
330.0
310.0
307.0
391.0
544.0
657.0
677.0
671.0
717.0
801.0
839.0
806.0
791.0
888.0
1050.0
1131.0
1071.0
959.0
940.0
1040.0
1172.0
1227.0
1204.0
1180.0
1224.0
1339.0
1473.0
1545.0
1474.0
1263.0
1034.0
949.0
1068.0
1270.0
1373.0
1316.0
1203.0
1160.0
1165.0
1112.0
953.0
760.0
646.0
630.0
624.0
549.0
389.0
202.0
52.0
-30.0
-97.0
-234.0
-472.0
-688.0
-724.0
-586.0
-490.0
-641.0
-976.0
-1225.0
-1235.0
-1142.0
-1176.0
-1332.0
-1383.0
-1228.0
-1059.0
-1114.0
-1352.0
-1488.0
-1386.0
-1243.0
-1307.0
-1530.0
-1623.0
-1431.0
-1155.0
-1096.0
-1297.0
-1520.0
-1541.0
-1400.0
-1289.0
-1294.0
-1335.0
-1312.0
-1235.0
-1171.0
-1160.0
-1196.0
-1280.0
-1406.0
-1510.0
-1509.0
-1389.0
-1241.0
-1173.0
-1208.0
-1262.0
-1236.0
-1131.0
-1073.0
-1160.0
-1362.0
-1510.0
-1433.0
-1144.0
-876.0
-850.0
-1064.0
-1260.0
-1203.0
-945.0
-753.0
-788.0
-955.0
-1024.0
-945.0
-864.0
-911.0
-1030.0
-1061.0
-966.0
-882.0
-901.0
-948.0
-875.0
-669.0
-485.0
-489.0
-666.0
-871.0
-973.0
-963.0
-908.0
-852.0
-791.0
-740.0
-725.0
-737.0
-732.0
-686.0
-648.0
-689.0
-772.0
-783.0
-680.0
-576.0
-605.0
-735.0
-773.0
-647.0
-532.0
-629.0
-865.0
-927.0
-677.0
-366.0
-351.0
-638.0
-864.0
-796.0
-590.0
-543.0
-688.0
-751.0
-562.0
-290.0
-216.0
-365.0
-539.0
-582.0
-554.0
-556.0
-601.0
-620.0
-604.0
-579.0
-554.0
-506.0
-484.0
-558.0
-719.0
-825.0
-787.0
-658.0
-556.0
-504.0
-412.0
-248.0
-166.0
-298.0
-586.0
-804.0
-799.0
-632.0
-490.0
-476.0
-543.0
-593.0
-575.0
-484.0
-379.0
-335.0
-405.0
-545.0
-637.0
-588.0
-439.0
-354.0
-464.0
-724.0
-941.0
-969.0
-813.0
-607.0
-489.0
-464.0
-452.0
-372.0
-264.0
-237.0
-355.0
-560.0
-702.0
-689.0
-558.0
-437.0
-433.0
-529.0
-608.0
-601.0
-523.0
-463.0
-489.0
-566.0
-595.0
-514.0
-360.0
-253.0
-275.0
-417.0
-587.0
-693.0
-711.0
-659.0
-555.0
-452.0
-408.0
-450.0
-510.0
-496.0
-391.0
-313.0
-363.0
-481.0
-500.0
-352.0
-185.0
-221.0
-460.0
-686.0
-689.0
-543.0
-507.0
-672.0
-826.0
-724.0
-387.0
-126.0
-161.0
-384.0
-528.0
-499.0
-455.0
-559.0
-727.0
-743.0
-545.0
-304.0
-221.0
-310.0
-434.0
-483.0
-464.0
-441.0
-432.0
-412.0
-384.0
-373.0
-365.0
-335.0
-290.0
-281.0
-373.0
-531.0
-633.0
-594.0
-442.0
-285.0
-217.0
-240.0
-304.0
-340.0
-303.0
-215.0
-163.0
-216.0
-344.0
-419.0
-361.0
-249.0
-256.0
-412.0
-556.0
-527.0
-368.0
-273.0
-330.0
