-11.0
75.0
156.0
130.0
-1.0
-107.0
-90.0
7.0
67.0
61.0
76.0
200.0
395.0
508.0
432.0
241.0
113.0
158.0
300.0
376.0
339.0
288.0
347.0
515.0
650.0
648.0
550.0
521.0
642.0
831.0
938.0
921.0
869.0
899.0
1009.0
1091.0
1042.0
897.0
796.0
842.0
1009.0
1184.0
1277.0
1297.0
1302.0
1302.0
1262.0
1174.0
1087.0
1050.0
1058.0
1073.0
1064.0
1043.0
1036.0
1037.0
1028.0
980.0
884.0
760.0
645.0
573.0
538.0
471.0
311.0
71.0
-144.0
-266.0
-322.0
-392.0
-502.0
-588.0
-596.0
-570.0
-610.0
-771.0
-991.0
-1166.0
-1256.0
-1298.0
-1319.0
-1294.0
-1187.0
-1051.0
-1001.0
-1106.0
-1287.0
-1384.0
-1325.0
-1213.0
-1200.0
-1320.0
-1440.0
-1415.0
-1273.0
-1173.0
-1252.0
-1467.0
-1626.0
-1600.0
-1414.0
-1238.0
-1195.0
-1254.0
-1267.0
-1149.0
-1006.0
-1018.0
-1231.0
-1468.0
-1514.0
-1343.0
-1132.0
-1068.0
-1193.0
-1378.0
-1486.0
-1477.0
-1386.0
-1263.0
-1168.0
-1125.0
-1105.0
-1030.0
-890.0
-782.0
-818.0
-989.0
-1160.0
-1195.0
-1112.0
-1020.0
-1014.0
-1057.0
-1064.0
-1024.0
-1005.0
-1069.0
-1158.0
-1142.0
-974.0
-767.0
-714.0
-836.0
-931.0
-801.0
-537.0
-466.0
-751.0
-1152.0
-1258.0
-947.0
-562.0
-493.0
-736.0
-954.0
-908.0
-707.0
-611.0
-697.0
-815.0
-815.0
-718.0
-628.0
-574.0
-519.0
-480.0
-511.0
-604.0
-676.0
-680.0
-681.0
-723.0
-765.0
-714.0
-573.0
-474.0
-514.0
-657.0
-763.0
-734.0
-612.0
-500.0
-454.0
-467.0
-515.0
-576.0
-638.0
-689.0
-739.0
-811.0
-901.0
-951.0
-897.0
-747.0
-592.0
-518.0
-542.0
-592.0
-599.0
-552.0
-489.0
-440.0
-404.0
-370.0
-362.0
-385.0
-430.0
-475.0
-536.0
-623.0
-705.0
-711.0
-604.0
-435.0
-314.0
-295.0
-353.0
-405.0
-417.0
-405.0
-375.0
-329.0
-304.0
-338.0
-429.0
-518.0
-556.0
-553.0
-546.0
-559.0
-573.0
-589.0
-615.0
-618.0
-548.0
-420.0
-341.0
-419.0
-608.0
-749.0
-734.0
-593.0
-431.0
-293.0
-151.0
-40.0
-71.0
-289.0
-546.0
-635.0
-527.0
-391.0
-372.0
-428.0
-410.0
-264.0
-94.0
-36.0
-80.0
-147.0
-212.0
-301.0
-370.0
-333.0
-200.0
-116.0
-190.0
-371.0
-469.0
-415.0
-338.0
-375.0
-457.0
-413.0
-210.0
-31.0
-48.0
-192.0
-257.0
-155.0
-15.0
-1.0
-91.0
-130.0
-54.0
35.0
36.0
-35.0
-101.0
-151.0
-213.0
-259.0
-200.0
-22.0
155.0
177.0
49.0
-55.0
-12.0
91.0
60.0
-144.0
-336.0
-288.0
11.0
321.0
399.0
250.0
83.0
78.0
199.0
264.0
164.0
-18.0
-125.0
-88.0
14.0
62.0
33.0
2.0
1.0
12.0
1.0
-21.0
18.0
158.0
322.0
388.0
293.0
113.0
-20.0
-63.0
-66.0
-79.0
-90.0
-40.0
38.0
44.0
-55.0
-158.0
-142.0
-11.0
94.0
86.0
8.0
-25.0
1.0
19.0
2.0
-13.0
-0.0
7.0
-34.0
-59.0
34.0
245.0
436.0
482.0
361.0
170.0
48.0
75.0
215.0
367.0
438.0
398.0
294.0
183.0
97.0
30.0
-8.0
-18.0
-49.0
-148.0
-256.0
-243.0
-78.0
70.0
-16.0
-333.0
-652.0
-761.0
-695.0
-630.0
-634.0
-623.0
-504.0
-330.0
-234.0
-277.0
-435.0
-653.0
-830.0
-867.0
-740.0
-569.0
-555.0
-742.0
-937.0
-924.0
-719.0
-574.0
-655.0
-880.0
-1036.0
-1020.0
-895.0
-783.0
-719.0
-695.0
-705.0
-763.0
-872.0
-989.0
-1058.0
-1031.0
-904.0
-747.0
-693.0
-801.0
-977.0
-1040.0
-910.0
-699.0
-568.0
-566.0
-610.0
-622.0
-604.0
-590.0
-565.0
-503.0
-432.0
-381.0
-311.0
-89.0
379.0
1023.0
1633.0
2062.0
2342.0
2622.0
2953.0
3202.0
3170.0
2777.0
2126.0
1356.0
456.0
-681.0
-2064.0
-3461.0
-4557.0
-5194.0
-5470.0
-5546.0
-5467.0
-5152.0
-4569.0
-3836.0
-3141.0
-2569.0
-2103.0
-1708.0
-1418.0
-1238.0
-1124.0
-987.0
-806.0
-677.0
-712.0
-872.0
-1006.0
-975.0
-796.0
-596.0
-481.0
-434.0
-391.0
-342.0
-320.0
-317.0
-279.0
-210.0
-215.0
-343.0
-469.0
-405.0
-159.0
30.0
-36.0
-271.0
-403.0
-310.0
-146.0
-106.0
-164.0
-143.0
-13.0
56.0
-54.0
-216.0
-211.0
-45.0
54.0
-52.0
-178.0
-71.0
241.0
474.0
441.0
279.0
250.0
366.0
403.0
231.0
17.0
24.0
281.0
559.0
639.0
517.0
362.0
292.0
321.0
398.0
484.0
534.0
529.0
505.0
526.0
599.0
648.0
600.0
507.0
505.0
668.0
900.0
1030.0
983.0
865.0
829.0
934.0
1078.0
1118.0
1008.0
865.0
878.0
1124.0
1447.0
1581.0
1417.0
1141.0
1061.0
1259.0
1504.0
1524.0
1340.0
1249.0
1442.0
1759.0
1867.0
1683.0
1453.0
1450.0
1648.0
1785.0
1727.0
1611.0
1623.0
1716.0
1695.0
1506.0
1341.0
1374.0
1527.0
1557.0
1390.0
1229.0
1286.0
1480.0
1532.0
1297.0
958.0
778.0
797.0
811.0
664.0
434.0
321.0
367.0
388.0
191.0
-167.0
-453.0
-510.0
-431.0
-428.0
-571.0
-715.0
-698.0
-553.0
-503.0
-673.0
-947.0
-1103.0
-1088.0
-1046.0
-1112.0
-1195.0
-1126.0
-922.0
-810.0
-959.0
-1225.0
-1302.0
-1106.0
-867.0
-849.0
-1006.0
-1062.0
-882.0
-682.0
-763.0
-1121.0
-1407.0
-1333.0
-1010.0
-796.0
-875.0
-1080.0
-1122.0
-941.0
-761.0
-778.0
-937.0
-1033.0
-976.0
-859.0
-811.0
-848.0
-902.0
-914.0
-901.0
-899.0
-945.0
-1061.0
-1196.0
-1226.0
-1068.0
-800.0
-647.0
-733.0
-928.0
-978.0
-814.0
-608.0
-555.0
-628.0
-655.0
-574.0
-486.0
-512.0
-643.0
-761.0
-791.0
-763.0
-738.0
-732.0
-727.0
-685.0
-598.0
-504.0
-477.0
-575.0
-750.0
-863.0
-823.0
-677.0
-553.0
-532.0
-554.0
-522.0
-435.0
-421.0
-568.0
-803.0
-956.0
-915.0
-740.0
-588.0
-553.0
-594.0
-621.0
-611.0
-622.0
-704.0
-820.0
-903.0
-927.0
-935.0
-957.0
-950.0
-870.0
-753.0
-706.0
-789.0
-923.0
-949.0
-773.0
-511.0
-379.0
-491.0
-753.0
-940.0
-919.0
-798.0
-762.0
-880.0
-1002.0
-966.0
-778.0
-623.0
-642.0
-768.0
-827.0
-784.0
-776.0
-909.0
-1076.0
-1056.0
-798.0
-530.0
-523.0
-797.0
-1098.0
-1179.0
-1058.0
-936.0
-940.0
-997.0
-997.0
-945.0
-903.0
-876.0
-821.0
-768.0
-816.0
-969.0
-1076.0
-992.0
-800.0
-726.0
-855.0
-1003.0
-973.0
-841.0
-851.0
-1060.0
-1226.0
-1117.0
-846.0
-727.0
-899.0
-1147.0
-1204.0
-1061.0
-956.0
-996.0
-1033.0
-903.0
-674.0
-570.0
-701.0
-908.0
-985.0
-930.0
-920.0
-1048.0
-1217.0
-1252.0
-1113.0
-910.0
-794.0
-802.0
-870.0
-939.0
-992.0
-1031.0
-1071.0
-1089.0
-1038.0
-905.0
-748.0
-687.0
-790.0
-958.0
-1012.0
-883.0
-727.0
-757.0
-992.0
-1220.0
-1215.0
-977.0
-741.0
-718.0
-889.0
-1054.0
-1045.0
-860.0
-633.0
-516.0
-551.0
-661.0
-755.0
-807.0
-866.0
-963.0
-1058.0
-1075.0
-986.0
-848.0
-751.0
-741.0
-790.0
-820.0
-779.0
-706.0
-672.0
-720.0
-788.0
-756.0
-597.0
-426.0
-403.0
-565.0
-774.0
-870.0
-812.0
-717.0
-677.0
-688.0
-683.0
-623.0
-527.0
-471.0
-486.0
-569.0
-684.0
-777.0
-806.0
-747.0
-612.0
-472.0
-407.0
-443.0
-527.0
-567.0
-484.0
-299.0
-113.0
-18.0
-22.0
-75.0
-111.0
-119.0
-125.0
-147.0
-196.0
-280.0
-399.0
-509.0
-515.0
-368.0
-159.0
-88.0
-265.0
-585.0
-794.0
-748.0
-562.0
-484.0
-618.0
-828.0
-928.0
-888.0
-860.0
-949.0
-1097.0
-1170.0
-1117.0
-1000.0
-906.0
-842.0
-781.0
-767.0
-836.0
-949.0
-1021.0
-1016.0
-997.0
-1017.0
-1049.0
-996.0
-862.0
-786.0
-881.0
-1044.0
-1050.0
-804.0
-506.0
-439.0
-651.0
-889.0
-892.0
-697.0
-591.0
-758.0
-1081.0
-1267.0
-1170.0
-906.0
-683.0
-579.0
-543.0
-516.0
-513.0
-559.0
-612.0
-589.0
-491.0
-388.0
-344.0
-310.0
-169.0
98.0
379.0
585.0
773.0
1110.0
1663.0
2298.0
2836.0
3249.0
3621.0
3947.0
4020.0
3598.0
2689.0
1536.0
376.0
-780.0
-2030.0
-3316.0
-4384.0
-5022.0
-5259.0
-5307.0
-5265.0
-5038.0
-4522.0
-3803.0
-3096.0
-2541.0
-2087.0
-1641.0
-1230.0
-972.0
-921.0
-964.0
-941.0
-816.0
-646.0
-506.0
-411.0
-344.0
-297.0
-279.0
-276.0
-260.0
-241.0
-258.0
-295.0
-281.0
-139.0
96.0
298.0
366.0
299.0
173.0
48.0
-39.0
-50.0
14.0
85.0
40.0
-150.0
-340.0
-344.0
-142.0
75.0
109.0
-8.0
-55.0
112.0
378.0
496.0
361.0
114.0
-19.0
13.0
81.0
52.0
-21.0
16.0
219.0
418.0
390.0
113.0
-159.0
-161.0
89.0
302.0
271.0
93.0
85.0
365.0
684.0
702.0
394.0
73.0
47.0
280.0
482.0
446.0
284.0
230.0
348.0
483.0
480.0
378.0
322.0
379.0
487.0
552.0
594.0
683.0
812.0
884.0
828.0
713.0
681.0
765.0
897.0
975.0
989.0
989.0
1023.0
1065.0
1069.0
1035.0
1014.0
1025.0
1065.0
1141.0
1274.0
1439.0
1548.0
1521.0
1398.0
1317.0
1369.0
1457.0
1409.0
1220.0
1075.0
1126.0
1272.0
1270.0
1035.0
765.0
698.0
803.0
822.0
635.0
419.0
416.0
585.0
627.0
353.0
-80.0
-371.0
-397.0
-328.0
-360.0
-475.0
-536.0
-525.0
-538.0
-657.0
-818.0
-920.0
-968.0
-1053.0
-1196.0
-1304.0
-1291.0
-1220.0
-1228.0
-1349.0
-1460.0
-1459.0
-1393.0
-1380.0
-1433.0
-1439.0
-1319.0
-1180.0
-1197.0
-1410.0
-1667.0
-1787.0
-1723.0
-1580.0
-1465.0
-1413.0
-1382.0
-1334.0
-1267.0
-1213.0
-1222.0
-1332.0
-1518.0
-1660.0
-1646.0
-1507.0
-1388.0
-1378.0
-1424.0
-1393.0
-1278.0
-1225.0
-1354.0
-1594.0
-1742.0
-1672.0
-1473.0
-1327.0
-1316.0
-1369.0
-1392.0
-1337.0
-1221.0
-1090.0
-1013.0
-1034.0
-1138.0
-1229.0
-1217.0
-1138.0
-1134.0
-1281.0
-1472.0
-1516.0
-1368.0
-1169.0
-1084.0
-1095.0
-1049.0
-882.0
-757.0
-845.0
-1092.0
-1278.0
-1275.0
-1176.0
-1172.0
-1272.0
-1305.0
-1174.0
-1026.0
-1064.0
-1266.0
-1396.0
-1299.0
-1097.0
-1018.0
-1071.0
-1084.0
-975.0
-890.0
-988.0
-1191.0
-1248.0
-1067.0
-854.0
-838.0
-993.0
-1091.0
-1013.0
-889.0
-911.0
-1065.0
-1174.0
-1141.0
-1043.0
-1000.0
-992.0
-927.0
-831.0
-806.0
-918.0
-1076.0
-1143.0
-1095.0
-1027.0
-994.0
-946.0
-831.0
-713.0
-687.0
-757.0
-828.0
-846.0
-872.0
-969.0
-1061.0
-1030.0
-880.0
-775.0
-828.0
-955.0
-979.0
-880.0
-799.0
-839.0
-917.0
-891.0
-762.0
-700.0
-797.0
-945.0
-987.0
-922.0
-875.0
-908.0
-934.0
-868.0
-734.0
-605.0
-512.0
-469.0
-520.0
-706.0
-921.0
-941.0
-703.0
-442.0
-454.0
-729.0
-920.0
-776.0
-474.0
-408.0
-677.0
-968.0
-950.0
-681.0
-481.0
-507.0
-594.0
-552.0
-453.0
-480.0
-657.0
-745.0
-573.0
-292.0
-204.0
-369.0
-526.0
-422.0
-145.0
-15.0
-197.0
-474.0
-495.0
-178.0
179.0
236.0
-3.0
-202.0
-127.0
92.0
127.0
-139.0
-441.0
-438.0
-106.0
264.0
378.0
253.0
124.0
147.0
245.0
238.0
51.0
-218.0
-415.0
-439.0
-326.0
-180.0
-142.0
-257.0
-415.0
-453.0
-328.0
-169.0
-135.0
-235.0
-335.0
-322.0
-250.0
-278.0
-444.0
-612.0
-614.0
-438.0
-242.0
-179.0
-257.0
-346.0
-325.0
-225.0
-198.0
-339.0
-559.0
-648.0
-497.0
-223.0
-28.0
5.0
-28.0
-12.0
29.0
-27.0
-194.0
-324.0
-288.0
-137.0
-69.0
-181.0
-328.0
-318.0
-154.0
-36.0
-105.0
-237.0
-196.0
55.0
302.0
324.0
196.0
182.0
406.0
680.0
779.0
784.0
1019.0
1653.0
2458.0
3022.0
3173.0
3098.0
3058.0
3077.0
2942.0
2463.0
1634.0
583.0
-544.0
-1623.0
-2546.0
-3269.0
-3844.0
-4333.0
-4685.0
-4717.0
-4299.0
-3537.0
-2746.0
-2178.0
-1842.0
-1569.0
-1238.0
-903.0
-699.0
-641.0
-602.0
-463.0
-262.0
-126.0
-128.0
-180.0
-166.0
-81.0
-21.0
-48.0
-95.0
-44.0
143.0
384.0
531.0
511.0
356.0
182.0
89.0
101.0
150.0
170.0
162.0
193.0
318.0
513.0
681.0
731.0
643.0
485.0
347.0
287.0
312.0
376.0
408.0
379.0
308.0
265.0
301.0
393.0
456.0
453.0
417.0
405.0
462.0
570.0
661.0
680.0
623.0
511.0
410.0
411.0
538.0
685.0
697.0
530.0
325.0
269.0
390.0
513.0
480.0
365.0
393.0
640.0
909.0
952.0
775.0
623.0
675.0
807.0
779.0
566.0
413.0
554.0
911.0
1170.0
1143.0
947.0
863.0
980.0
1155.0
1210.0
1166.0
1199.0
1359.0
1486.0
1444.0
1301.0
1268.0
1408.0
1567.0
1587.0
1538.0
1618.0
1874.0
2103.0
2112.0
1953.0
1828.0
1810.0
1770.0
1615.0
1469.0
1519.0
1741.0
1864.0
1716.0
1435.0
1310.0
1416.0
1519.0
1376.0
1043.0
803.0
817.0
954.0
970.0
787.0
534.0
363.0
276.0
200.0
91.0
-4.0
-41.0
-44.0
-78.0
-178.0
-344.0
-516.0
-643.0
-696.0
-700.0
-704.0
-727.0
-735.0
-700.0
-665.0
-713.0
-839.0
-945.0
-947.0
-880.0
-838.0
-855.0
-863.0
-811.0
-755.0
-784.0
-895.0
-1009.0
-1060.0
-1063.0
-1052.0
-1026.0
-957.0
-863.0
-792.0
-811.0
-916.0
-1058.0
-1142.0
-1119.0
-999.0
-864.0
-784.0
-776.0
-783.0
-769.0
-755.0
-771.0
-799.0
-792.0
-730.0
-650.0
-594.0
-571.0
-590.0
-676.0
-831.0
-997.0
-1080.0
-1042.0
-961.0
-915.0
-890.0
-807.0
-647.0
-486.0
-426.0
-484.0
-587.0
-658.0
-683.0
-659.0
-599.0
-545.0
-572.0
-705.0
-833.0
-822.0
-679.0
-550.0
-547.0
-598.0
-528.0
-297.0
-115.0
-207.0
-522.0
-757.0
-690.0
-450.0
-388.0
-627.0
-914.0
-890.0
-520.0
-161.0
-173.0
-521.0
-837.0
-841.0
-609.0
-418.0
-435.0
-551.0
-582.0
-499.0
-425.0
-451.0
-560.0
-669.0
-734.0
-745.0
-703.0
-627.0
-567.0
-570.0
-623.0
-649.0
-615.0
-580.0
-629.0
-727.0
-746.0
-631.0
-483.0
-469.0
-614.0
-766.0
-781.0
-679.0
-607.0
-649.0
-689.0
-596.0
-410.0
-324.0
-435.0
-645.0
-786.0
-805.0
-791.0
-797.0
-749.0
-618.0
-508.0
-532.0
-658.0
-745.0
-721.0
-683.0
-732.0
-826.0
-850.0
-783.0
-706.0
-671.0
-624.0
-574.0
-633.0
-861.0
-1105.0
-1130.0
-893.0
-644.0
-634.0
-806.0
-891.0
-780.0
-656.0
-735.0
-964.0
-1092.0
-993.0
-820.0
-782.0
-856.0
-875.0
-774.0
-675.0
-710.0
-839.0
-906.0
-856.0
-766.0
-735.0
-770.0
-820.0
-868.0
-937.0
-1024.0
-1073.0
-1058.0
-1004.0
-978.0
-989.0
-996.0
-948.0
-844.0
-729.0
-669.0
-710.0
-822.0
-900.0
-840.0
-650.0
-471.0
-459.0
-623.0
-843.0
-980.0
-1005.0
-965.0
-908.0
-830.0
-730.0
-637.0
-598.0
-589.0
-546.0
-452.0
-384.0
-402.0
-486.0
-542.0
-524.0
-466.0
-415.0
-373.0
-323.0
-312.0
-382.0
-497.0
-549.0
-475.0
-351.0
-266.0
-246.0
-253.0
-321.0
-497.0
-707.0
-757.0
-574.0
-358.0
-376.0
-610.0
-771.0
-658.0
-428.0
-415.0
-688.0
-969.0
-995.0
-816.0
-673.0
-672.0
-691.0
-617.0
-543.0
-627.0
-822.0
-920.0
-819.0
-667.0
-654.0
-777.0
-837.0
-732.0
-591.0
-612.0
-786.0
-914.0
-865.0
-744.0
-727.0
-816.0
-842.0
-723.0
-577.0
-593.0
-760.0
-885.0
-823.0
-650.0
-520.0
-490.0
-468.0
-386.0
-290.0
-286.0
-406.0
-553.0
-609.0
-557.0
-468.0
-406.0
-331.0
-151.0
137.0
403.0
532.0
591.0
791.0
1265.0
1897.0
2421.0
2711.0
2860.0
3010.0
3105.0
2917.0
2309.0
1384.0
355.0
-663.0
-1691.0
-2700.0
-3564.0
-4155.0
-4476.0
-4591.0
-4513.0
-4194.0
-3645.0
-2986.0
-2329.0
-1722.0
-1183.0
-816.0
-705.0
-783.0
-836.0
-724.0
-555.0
-542.0
-702.0
-810.0
-665.0
-354.0
-122.0
-96.0
-153.0
-127.0
-38.0
-26.0
-113.0
-154.0
-22.0
165.0
197.0
7.0
-231.0
-309.0
-204.0
-55.0
37.0
83.0
128.0
147.0
103.0
24.0
-19.0
-13.0
-27.0
-97.0
-132.0
-25.0
214.0
416.0
438.0
331.0
242.0
229.0
229.0
171.0
92.0
77.0
155.0
262.0
322.0
322.0
294.0
239.0
147.0
75.0
115.0
284.0
473.0
553.0
529.0
501.0
532.0
566.0
541.0
510.0
566.0
690.0
744.0
665.0
555.0
567.0
696.0
775.0
694.0
542.0
524.0
717.0
1014.0
1246.0
1318.0
1246.0
1112.0
1023.0
1039.0
1128.0
1187.0
1147.0
1077.0
1112.0
1297.0
1538.0
1659.0
1590.0
1415.0
1287.0
1302.0
1438.0
1587.0
1649.0
1617.0
1598.0
1673.0
1797.0
1840.0
1738.0
1601.0
1587.0
1721.0
1862.0
1868.0
1749.0
1618.0
1545.0
1494.0
1396.0
1245.0
1131.0
1123.0
1180.0
1156.0
976.0
729.0
566.0
532.0
486.0
301.0
74.0
18.0
173.0
308.0
164.0
-204.0
-473.0
-435.0
-259.0
-291.0
-611.0
-923.0
-928.0
-667.0
-476.0
-565.0
-827.0
-1000.0
-987.0
-903.0
-889.0
-909.0
-862.0
-741.0
-655.0
-698.0
-836.0
-969.0
-1029.0
-1023.0
-996.0
-988.0
-1033.0
-1112.0
-1146.0
-1060.0
-893.0
-805.0
-918.0
-1150.0
-1284.0
-1200.0
-1001.0
-890.0
-935.0
-1024.0
-1026.0
-947.0
-878.0
-856.0
-858.0
-845.0
-802.0
-736.0
-664.0
-629.0
-681.0
-786.0
-855.0
-841.0
-798.0
-805.0
-825.0
-760.0
-586.0
-444.0
-446.0
-534.0
-565.0
-543.0
-566.0
-658.0
-684.0
-546.0
-367.0
-372.0
-564.0
-700.0
-597.0
-408.0
-422.0
-672.0
-862.0
-751.0
-461.0
-333.0
-491.0
-716.0
-721.0
-529.0
-403.0
-490.0
-638.0
-613.0
-394.0
-229.0
-317.0
-566.0
-698.0
-581.0
-383.0
-364.0
-541.0
-669.0
-549.0
-284.0
-155.0
-319.0
-646.0
-871.0
-889.0
-779.0
-663.0
-596.0
-575.0
-564.0
-517.0
-426.0
-374.0
-473.0
-705.0
-878.0
-812.0
-558.0
-348.0
-346.0
-462.0
-494.0
-424.0
-417.0
-565.0
-754.0
-801.0
-688.0
-575.0
-559.0
-569.0
-480.0
-317.0
-244.0
-359.0
-543.0
-607.0
-500.0
-355.0
-331.0
-446.0
-563.0
-599.0
-574.0
-568.0
-598.0
-616.0
-567.0
-469.0
-375.0
-319.0
-293.0
-296.0
-348.0
-454.0
-562.0
-600.0
-521.0
-374.0
-255.0
-223.0
-258.0
-300.0
-304.0
-275.0
-256.0
-271.0
-301.0
-326.0
-355.0
-377.0
-341.0
-218.0
-76.0
-48.0
-213.0
-459.0
-562.0
-408.0
-120.0
55.0
-21.0
-263.0
-474.0
-538.0
-460.0
-329.0
-221.0
-170.0
-187.0
-224.0
-220.0
-147.0
-66.0
-52.0
-111.0
-151.0
-106.0
-10.0
55.0
74.0
96.0
158.0
184.0
73.0
-162.0
-351.0
-348.0
-172.0
6.0
59.0
8.0
-24.0
25.0
79.0
32.0
-96.0
-174.0
-91.0
89.0
180.0
77.0
-107.0
-151.0
18.0
228.0
267.0
115.0
-22.0
42.0
306.0
566.0
628.0
474.0
247.0
115.0
132.0
193.0
150.0
-19.0
-159.0
-107.0
74.0
121.0
