1666.0
2009.0
2349.0
2667.0
2873.0
2887.0
2699.0
2366.0
1881.0
1125.0
-14.0
-1430.0
-2790.0
-3775.0
-4373.0
-4796.0
-5185.0
-5407.0
-5239.0
-4691.0
-4031.0
-3497.0
-3072.0
-2601.0
-2082.0
-1663.0
-1431.0
-1261.0
-1016.0
-764.0
-699.0
-853.0
-1008.0
-944.0
-713.0
-522.0
-467.0
-442.0
-342.0
-222.0
-204.0
-272.0
-295.0
-224.0
-160.0
-206.0
-293.0
-244.0
-23.0
169.0
113.0
-151.0
-359.0
-301.0
-50.0
121.0
85.0
-23.0
24.0
242.0
389.0
244.0
-102.0
-353.0
-296.0
-62.0
55.0
-72.0
-261.0
-262.0
-71.0
76.0
-10.0
-241.0
-366.0
-274.0
-103.0
-44.0
-96.0
-107.0
21.0
171.0
174.0
24.0
-101.0
-34.0
189.0
368.0
360.0
210.0
80.0
50.0
77.0
77.0
31.0
-16.0
24.0
181.0
396.0
544.0
557.0
487.0
453.0
480.0
455.0
308.0
158.0
209.0
499.0
797.0
845.0
676.0
563.0
686.0
921.0
1022.0
916.0
768.0
746.0
863.0
1013.0
1114.0
1141.0
1095.0
1000.0
929.0
970.0
1116.0
1263.0
1299.0
1211.0
1093.0
1049.0
1096.0
1156.0
1138.0
1014.0
879.0
848.0
945.0
1044.0
1019.0
888.0
778.0
726.0
628.0
420.0
240.0
259.0
411.0
404.0
71.0
-411.0
-679.0
-634.0
-517.0
-597.0
-857.0
-1038.0
-984.0
-815.0
-747.0
-848.0
-1008.0
-1106.0
-1159.0
-1245.0
-1377.0
-1464.0
-1402.0
-1229.0
-1099.0
-1155.0
-1369.0
-1557.0
-1545.0
-1342.0
-1135.0
-1098.0
-1235.0
-1376.0
-1375.0
-1263.0
-1202.0
-1283.0
-1440.0
-1544.0
-1549.0
-1491.0
-1388.0
-1222.0
-1036.0
-960.0
-1100.0
-1337.0
-1438.0
-1309.0
-1123.0
-1096.0
-1219.0
-1267.0
-1143.0
-987.0
-996.0
-1144.0
-1226.0
-1155.0
-1076.0
-1141.0
-1288.0
-1307.0
-1120.0
-895.0
-834.0
-943.0
-1080.0
-1121.0
-1065.0
-951.0
-812.0
-717.0
-746.0
-861.0
-930.0
-879.0
-811.0
-876.0
-1037.0
-1084.0
-922.0
-735.0
-757.0
-948.0
-1034.0
-877.0
-679.0
-715.0
-956.0
-1076.0
-890.0
-581.0
-444.0
-544.0
-690.0
-729.0
-715.0
-770.0
-880.0
-907.0
-775.0
-585.0
-475.0
-487.0
-551.0
-610.0
-657.0
-718.0
-773.0
-778.0
-698.0
-579.0
-506.0
-539.0
-630.0
-686.0
-662.0
-624.0
-665.0
-793.0
-884.0
-797.0
-524.0
-241.0
-165.0
-373.0
-700.0
-885.0
-813.0
-625.0
-542.0
-640.0
-758.0
-714.0
-526.0
-367.0
-374.0
-496.0
-587.0
-590.0
-547.0
-514.0
-502.0
-501.0
-540.0
-626.0
-687.0
-648.0
-530.0
-464.0
-541.0
-681.0
-700.0
-526.0
-300.0
-251.0
-452.0
-737.0
-854.0
-713.0
-469.0
-332.0
-371.0
-471.0
-486.0
-408.0
-359.0
-402.0
-502.0
-600.0
-675.0
-702.0
-655.0
-512.0
-360.0
-335.0
-467.0
-620.0
-653.0
-587.0
-583.0
-681.0
-733.0
-601.0
-380.0
-289.0
-415.0
-580.0
-572.0
-414.0
-297.0
-334.0
-415.0
-400.0
-300.0
-246.0
-302.0
-395.0
-469.0
-539.0
-633.0
-681.0
-568.0
-313.0
-112.0
-149.0
-376.0
-592.0
-637.0
-537.0
-453.0
-481.0
-564.0
-583.0
-497.0
-392.0
-377.0
-465.0
-571.0
-601.0
-544.0
-478.0
-448.0
-400.0
-276.0
-125.0
-65.0
-187.0
-398.0
-522.0
-475.0
-355.0
-306.0
-347.0
-363.0
-276.0
-134.0
-67.0
-112.0
-185.0
-188.0
-121.0
-45.0
-11.0
8.0
15.0
-1.0
-39.0
-49.0
-2.0
50.0
3.0
-124.0
-181.0
-39.0
192.0
244.0
-20.0
-382.0
-509.0
-322.0
-93.0
-121.0
-377.0
-551.0
-463.0
-275.0
-260.0
-465.0
-664.0
-665.0
-552.0
-523.0
-618.0
-663.0
-526.0
-336.0
-318.0
-507.0
-691.0
-684.0
-563.0
-534.0
-652.0
-727.0
-584.0
-343.0
-296.0
-569.0
-928.0
-1033.0
-819.0
-540.0
-463.0
-579.0
-651.0
-526.0
-300.0
-180.0
-253.0
-434.0
-594.0
-686.0
-697.0
-609.0
-416.0
-230.0
-201.0
-351.0
-513.0
-497.0
-287.0
-88.0
-59.0
-136.0
-103.0
147.0
489.0
710.0
787.0
920.0
1302.0
1909.0
2546.0
3010.0
3272.0
3395.0
3424.0
3300.0
2880.0
2069.0
929.0
-355.0
-1558.0
-2563.0
-3395.0
-4095.0
-4619.0
-4868.0
-4803.0
-4496.0
-4043.0
-3478.0
-2812.0
-2135.0
-1607.0
-1316.0
-1204.0
-1120.0
-978.0
-830.0
-773.0
-810.0
-834.0
-724.0
-477.0
-203.0
-43.0
-32.0
-100.0
-119.0
-64.0
-22.0
-76.0
-173.0
-164.0
-5.0
141.0
96.0
-110.0
-235.0
-130.0
78.0
129.0
-26.0
-160.0
-49.0
222.0
364.0
218.0
-53.0
-196.0
-145.0
-52.0
-40.0
-91.0
-79.0
25.0
131.0
138.0
38.0
-78.0
-119.0
-38.0
133.0
277.0
300.0
197.0
113.0
161.0
276.0
293.0
134.0
-69.0
-99.0
81.0
315.0
420.0
355.0
229.0
159.0
166.0
191.0
183.0
145.0
131.0
193.0
327.0
449.0
479.0
407.0
300.0
217.0
158.0
119.0
158.0
323.0
559.0
699.0
661.0
540.0
507.0
628.0
786.0
837.0
789.0
740.0
775.0
871.0
976.0
1046.0
1046.0
960.0
851.0
827.0
943.0
1117.0
1225.0
1214.0
1156.0
1130.0
1122.0
1060.0
948.0
869.0
911.0
1058.0
1200.0
1247.0
1186.0
1071.0
968.0
895.0
816.0
683.0
502.0
340.0
253.0
240.0
219.0
124.0
-35.0
-203.0
-325.0
-401.0
-450.0
-504.0
-569.0
-641.0
-715.0
-787.0
-865.0
-951.0
-1049.0
-1141.0
-1180.0
-1142.0
-1064.0
-1010.0
-1014.0
-1063.0
-1137.0
-1215.0
-1292.0
-1332.0
-1308.0
-1239.0
-1201.0
-1217.0
-1241.0
-1200.0
-1135.0
-1150.0
-1264.0
-1344.0
-1275.0
-1116.0
-1050.0
-1146.0
-1250.0
-1197.0
-1059.0
-1049.0
-1225.0
-1391.0
-1344.0
-1127.0
-959.0
-947.0
-981.0
-926.0
-849.0
-926.0
-1168.0
-1362.0
-1324.0
-1127.0
-990.0
-1005.0
-1060.0
-1002.0
-847.0
-757.0
-837.0
-1003.0
-1078.0
-980.0
-791.0
-664.0
-655.0
-697.0
-697.0
-656.0
-637.0
-672.0
-716.0
-726.0
-720.0
-724.0
-730.0
-703.0
-653.0
-655.0
-753.0
-878.0
-907.0
-823.0
-727.0
-704.0
-701.0
-626.0
-493.0
-441.0
-546.0
-734.0
-833.0
-760.0
-607.0
-534.0
-572.0
-639.0
-643.0
-611.0
-625.0
-714.0
-788.0
-741.0
-587.0
-473.0
-496.0
-573.0
-543.0
-372.0
-251.0
-384.0
-730.0
-987.0
-902.0
-569.0
-321.0
-370.0
-581.0
-657.0
-497.0
-316.0
-356.0
-594.0
-757.0
-653.0
-409.0
-323.0
-491.0
-692.0
-678.0
-474.0
-337.0
-452.0
-688.0
-763.0
-562.0
-258.0
-124.0
-256.0
-505.0
-649.0
-604.0
-464.0
-392.0
-435.0
-523.0
-544.0
-478.0
-421.0
-472.0
-622.0
-746.0
-738.0
-616.0
-503.0
-497.0
-560.0
-548.0
-383.0
-174.0
-133.0
-356.0
-684.0
-845.0
-731.0
-502.0
-408.0
-518.0
-655.0
-655.0
-556.0
-509.0
-565.0
-597.0
-492.0
-333.0
-291.0
-395.0
-483.0
-435.0
-340.0
-374.0
-548.0
-671.0
-588.0
-359.0
-207.0
-245.0
-361.0
-379.0
-313.0
-330.0
-510.0
-709.0
-710.0
-487.0
-246.0
-201.0
-338.0
-439.0
-339.0
-144.0
-114.0
-342.0
-627.0
-675.0
-426.0
-128.0
-98.0
-351.0
-616.0
-627.0
-427.0
-279.0
-355.0
-539.0
-599.0
-457.0
-289.0
-286.0
-439.0
-579.0
-589.0
-505.0
-420.0
-366.0
-323.0
-276.0
-260.0
-300.0
-340.0
-339.0
-337.0
-410.0
-542.0
-610.0
-514.0
-323.0
-202.0
-235.0
-348.0
-392.0
-326.0
-235.0
-216.0
-254.0
-238.0
-109.0
64.0
168.0
168.0
124.0
101.0
103.0
92.0
74.0
84.0
129.0
183.0
198.0
139.0
-2.0
-177.0
-277.0
-219.0
-43.0
87.0
29.0
-139.0
-197.0
-49.0
114.0
16.0
-377.0
-782.0
-922.0
-790.0
-617.0
-577.0
-612.0
-598.0
-532.0
-500.0
-546.0
-593.0
-569.0
-496.0
-456.0
-470.0
-488.0
-472.0
-461.0
-525.0
-663.0
-778.0
-782.0
-683.0
-589.0
-568.0
-580.0
-538.0
-436.0
-406.0
-557.0
-822.0
-999.0
-949.0
-750.0
-601.0
-613.0
-717.0
-769.0
-732.0
-686.0
-689.0
-689.0
-608.0
-447.0
-325.0
-326.0
-404.0
-420.0
-322.0
-210.0
-213.0
-311.0
-351.0
-210.0
67.0
325.0
493.0
672.0
999.0
1477.0
1980.0
2426.0
2837.0
3257.0
3589.0
3660.0
3375.0
2773.0
1911.0
794.0
-527.0
-1864.0
-3003.0
-3858.0
-4517.0
-5019.0
-5247.0
-5051.0
-4493.0
-3858.0
-3356.0
-2903.0
-2321.0
-1625.0
-1056.0
-805.0
-788.0
-786.0
-706.0
-639.0
-653.0
-669.0
-589.0
-455.0
-385.0
-374.0
-288.0
-73.0
115.0
74.0
-187.0
-442.0
-479.0
-326.0
-157.0
-94.0
-106.0
-112.0
-89.0
-79.0
-122.0
-199.0
-238.0
-194.0
-84.0
26.0
70.0
33.0
-31.0
-56.0
-28.0
-1.0
-8.0
-42.0
-55.0
-34.0
26.0
119.0
204.0
202.0
57.0
-153.0
-285.0
-242.0
-74.0
50.0
67.0
54.0
105.0
199.0
233.0
174.0
111.0
129.0
201.0
209.0
101.0
-46.0
-111.0
-84.0
-45.0
-75.0
-157.0
-181.0
-79.0
101.0
266.0
378.0
458.0
515.0
484.0
320.0
124.0
90.0
303.0
609.0
747.0
644.0
470.0
461.0
651.0
859.0
922.0
834.0
725.0
714.0
802.0
937.0
1063.0
1136.0
1124.0
1042.0
958.0
942.0
1010.0
1127.0
1249.0
1352.0
1388.0
1325.0
1181.0
1056.0
1034.0
1091.0
1129.0
1112.0
1078.0
1101.0
1179.0
1220.0
1130.0
905.0
630.0
419.0
316.0
264.0
171.0
54.0
11.0
94.0
193.0
121.0
-163.0
-491.0
-683.0
-725.0
-734.0
-773.0
-806.0
-807.0
-828.0
-917.0
-1018.0
-1036.0
-989.0
-1002.0
-1118.0
-1230.0
-1235.0
-1191.0
-1228.0
-1354.0
-1447.0
-1427.0
-1370.0
-1373.0
-1376.0
-1287.0
-1139.0
-1089.0
-1195.0
-1335.0
-1372.0
-1326.0
-1317.0
-1374.0
-1397.0
-1342.0
-1283.0
-1310.0
-1384.0
-1415.0
-1394.0
-1408.0
-1478.0
-1508.0
-1385.0
-1149.0
-955.0
-902.0
-941.0
-995.0
-1009.0
-1002.0
-1007.0
-1031.0
-1056.0
-1063.0
-1045.0
-1018.0
-1024.0
-1078.0
-1122.0
-1098.0
-1015.0
-991.0
-1072.0
-1165.0
-1113.0
-903.0
-699.0
-703.0
-912.0
-1145.0
-1213.0
-1099.0
-940.0
-864.0
-872.0
-885.0
-856.0
-832.0
-851.0
-860.0
-785.0
-643.0
-596.0
-740.0
-929.0
-926.0
-692.0
-473.0
-550.0
-881.0
-1148.0
-1114.0
-878.0
-672.0
-580.0
-520.0
-459.0
-493.0
-673.0
-865.0
-885.0
-760.0
-705.0
-835.0
-999.0
-973.0
-742.0
-506.0
-452.0
-545.0
-652.0
-702.0
-732.0
-737.0
-658.0
-495.0
-388.0
-478.0
-737.0
-949.0
-937.0
-746.0
-591.0
-627.0
-789.0
-870.0
-735.0
-465.0
-299.0
-401.0
-688.0
-893.0
-826.0
-568.0
-404.0
-502.0
-723.0
-797.0
-637.0
-443.0
-459.0
-683.0
-869.0
-806.0
-550.0
-333.0
-304.0
-406.0
-498.0
-521.0
-520.0
-559.0
-638.0
-697.0
-683.0
-607.0
-516.0
-461.0
-447.0
-443.0
-444.0
-492.0
-597.0
-686.0
-654.0
-502.0
-353.0
-320.0
-374.0
-399.0
-360.0
-356.0
-464.0
-606.0
-620.0
-478.0
-327.0
-322.0
-430.0
-505.0
-493.0
-479.0
-529.0
-583.0
-535.0
-418.0
-369.0
-451.0
-536.0
-480.0
-339.0
-318.0
-503.0
-746.0
-805.0
-625.0
-396.0
-316.0
-402.0
-520.0
-590.0
-630.0
-672.0
-681.0
-600.0
-444.0
-321.0
-315.0
-390.0
-459.0
-466.0
-442.0
-457.0
-523.0
-596.0
-623.0
-615.0
-593.0
-546.0
-448.0
-343.0
-341.0
-511.0
-747.0
-827.0
-626.0
-287.0
-87.0
-181.0
-451.0
-641.0
-609.0
-434.0
-313.0
-375.0
-563.0
-708.0
-670.0
-484.0
-333.0
-370.0
-561.0
-719.0
-676.0
-470.0
-289.0
-244.0
-290.0
-307.0
-253.0
-213.0
-280.0
-456.0
-631.0
-709.0
-661.0
-533.0
-389.0
-264.0
-172.0
-150.0
-230.0
-393.0
-528.0
-532.0
-425.0
-342.0
-388.0
-506.0
-555.0
-477.0
-376.0
-369.0
-445.0
-491.0
-460.0
-390.0
-337.0
-291.0
-219.0
-160.0
-212.0
-382.0
-561.0
-620.0
-549.0
-425.0
-340.0
-319.0
-327.0
-340.0
-343.0
-326.0
-309.0
-312.0
-343.0
-367.0
-354.0
-310.0
-267.0
-241.0
-232.0
-267.0
-382.0
-504.0
-493.0
-292.0
-33.0
61.0
-91.0
-310.0
-379.0
-280.0
-205.0
-289.0
-465.0
-552.0
-478.0
-332.0
-233.0
-198.0
-167.0
-137.0
-173.0
-279.0
-357.0
-294.0
-92.0
117.0
186.0
113.0
33.0
50.0
143.0
196.0
155.0
76.0
60.0
97.0
125.0
125.0
121.0
122.0
87.0
-32.0
-163.0
-181.0
-67.0
51.0
51.0
-46.0
-126.0
-131.0
-139.0
-251.0
-421.0
-522.0
-489.0
-406.0
-377.0
-426.0
-476.0
-479.0
-480.0
-541.0
-633.0
-662.0
-576.0
-465.0
-449.0
-563.0
-702.0
-751.0
-704.0
-659.0
-691.0
-779.0
-821.0
-744.0
-569.0
-385.0
-278.0
-304.0
-457.0
-625.0
-690.0
-643.0
-566.0
-562.0
-637.0
-669.0
-576.0
-429.0
-387.0
-500.0
-637.0
-641.0
-490.0
-309.0
-234.0
-267.0
-314.0
-306.0
-257.0
-233.0
-279.0
-379.0
-451.0
-383.0
-139.0
199.0
456.0
564.0
648.0
935.0
1503.0
2200.0
2776.0
3137.0
3365.0
3550.0
3623.0
3439.0
2915.0
2055.0
904.0
-450.0
-1843.0
-3019.0
-3810.0
-4258.0
-4559.0
-4815.0
-4917.0
-4695.0
-4147.0
-3439.0
-2746.0
-2119.0
-1568.0
-1148.0
-917.0
-820.0
-729.0
-592.0
-508.0
-591.0
-762.0
-807.0
-617.0
-332.0
-187.0
-235.0
-322.0
-302.0
-229.0
-230.0
-314.0
-359.0
-261.0
-68.0
88.0
135.0
100.0
27.0
-46.0
-95.0
-98.0
-77.0
-82.0
-146.0
-201.0
-177.0
-92.0
-52.0
-109.0
-194.0
-188.0
-89.0
7.0
43.0
65.0
124.0
197.0
188.0
72.0
-53.0
-84.0
-21.0
66.0
99.0
77.0
64.0
91.0
153.0
201.0
179.0
92.0
11.0
21.0
126.0
257.0
317.0
279.0
183.0
98.0
59.0
68.0
88.0
107.0
135.0
200.0
310.0
441.0
517.0
489.0
390.0
305.0
310.0
394.0
489.0
544.0
572.0
612.0
658.0
668.0
623.0
593.0
665.0
821.0
976.0
1046.0
1048.0
1071.0
1142.0
1181.0
1111.0
978.0
916.0
993.0
1136.0
1225.0
1252.0
1287.0
1376.0
1441.0
1371.0
1185.0
1042.0
1068.0
1216.0
1295.0
1200.0
1003.0
891.0
936.0
1027.0
993.0
825.0
664.0
628.0
678.0
703.0
644.0
541.0
417.0
235.0
-36.0
-311.0
-458.0
-450.0
-403.0
-449.0
-594.0
-726.0
-762.0
-738.0
-756.0
-874.0
-1039.0
-1129.0
-1085.0
-961.0
-882.0
-932.0
-1068.0
-1170.0
-1178.0
-1171.0
-1257.0
-1415.0
-1498.0
-1419.0
-1242.0
-1114.0
-1118.0
-1217.0
-1319.0
-1389.0
-1432.0
-1455.0
-1433.0
-1345.0
-1224.0
-1137.0
-1134.0
-1215.0
-1310.0
-1348.0
-1322.0
-1308.0
-1347.0
-1378.0
-1298.0
-1124.0
-1001.0
-1042.0
-1160.0
-1158.0
-991.0
-854.0
-940.0
-1186.0
-1319.0
-1203.0
-987.0
-936.0
-1119.0
-1322.0
-1321.0
-1132.0
-936.0
-854.0
-839.0
-798.0
-742.0
-783.0
-961.0
-1143.0
-1153.0
-973.0
-785.0
-790.0
-957.0
-1064.0
-966.0
-764.0
-706.0
-886.0
-1136.0
-1216.0
-1079.0
-877.0
-776.0
-780.0
-794.0
-768.0
-750.0
-787.0
-865.0
-920.0
-927.0
-904.0
-865.0
-807.0
-774.0
-809.0
-903.0
-982.0
-992.0
-953.0
-940.0
-956.0
-914.0
-742.0
-528.0
-450.0
-587.0
-816.0
-933.0
-857.0
-718.0
-695.0
-819.0
-913.0
-785.0
-473.0
-260.0
-384.0
-758.0
-1015.0
-911.0
-598.0
-449.0
-618.0
-867.0
-883.0
-679.0
-548.0
-663.0
-873.0
-920.0
-770.0
-633.0
-670.0
-801.0
-838.0
-736.0
-621.0
-634.0
-783.0
-958.0
-1005.0
-846.0
-579.0
-411.0
-491.0
-738.0
-913.0
-868.0
-703.0
-610.0
-649.0
-694.0
-630.0
-493.0
-410.0
-438.0
-521.0
-592.0
-662.0
-763.0
-877.0
-924.0
-833.0
-623.0
-435.0
-415.0
-578.0
-777.0
-832.0
-723.0
-612.0
-639.0
-765.0
-832.0
-777.0
-682.0
-657.0
-711.0
-780.0
-813.0
-828.0
-821.0
-744.0
-592.0
-452.0
-431.0
-532.0
-656.0
-714.0
-710.0
-693.0
-686.0
-674.0
-645.0
-613.0
-586.0
-564.0
-535.0
-507.0
-506.0
-564.0
-672.0
-763.0
-755.0
-632.0
-503.0
-509.0
-674.0
-851.0
-880.0
-754.0
-619.0
-591.0
-636.0
-623.0
-524.0
-436.0
-448.0
-537.0
-621.0
-646.0
-621.0
-565.0
-509.0
-482.0
-502.0
-556.0
-592.0
-576.0
-545.0
-562.0
-623.0
-642.0
-559.0
-424.0
-355.0
-419.0
-564.0
-687.0
-722.0
-698.0
-695.0
-737.0
-772.0
-722.0
-599.0
-496.0
-499.0
-586.0
-666.0
-668.0
-617.0
-558.0
-504.0
-449.0
-418.0
-448.0
-508.0
-547.0
-564.0
-608.0
-691.0
-741.0
-663.0
-502.0
-409.0
-455.0
-540.0
-541.0
-480.0
-494.0
-618.0
-712.0
-644.0
-478.0
-385.0
-438.0
-532.0
-567.0
-593.0
-704.0
-854.0
-894.0
-768.0
-599.0
-510.0
-471.0
-381.0
-282.0
-343.0
-594.0
-833.0
-844.0
-653.0
-501.0
-533.0
-646.0
-647.0
-512.0
-373.0
-341.0
-385.0
-420.0
-408.0
-357.0
-271.0
-176.0
-150.0
-249.0
-426.0
-536.0
-505.0
-416.0
-382.0
-396.0
-355.0
-229.0
-133.0
-180.0
-311.0
-353.0
-245.0
-120.0
-102.0
-133.0
-63.0
111.0
181.0
4.0
-265.0
-342.0
-190.0
-60.0
-183.0
-435.0
-480.0
-207.0
94.0
82.0
-238.0
-534.0
-554.0
-371.0
-248.0
-304.0
-464.0
-585.0
-620.0
-603.0
-591.0
-607.0
-669.0
-767.0
-853.0
-861.0
-762.0
-591.0
-453.0
-427.0
-533.0
-700.0
-817.0
-827.0
-764.0
-692.0
-631.0
-564.0
-529.0
-586.0
-742.0
-856.0
-817.0
-700.0
-720.0
-944.0
-1156.0
-1084.0
-744.0
-440.0
-434.0
-658.0
-831.0
-805.0
-701.0
-700.0
-783.0
-787.0
-645.0
-498.0
-522.0
-732.0
-934.0
-917.0
-682.0
-430.0
-371.0
-488.0
-561.0
-406.0
-73.0
173.0
190.0
152.0
375.0
957.0
1689.0
2296.0
2722.0
3097.0
3452.0
3598.0
3361.0
2776.0
2045.0
1248.0
264.0
-1032.0
-2480.0
-3728.0
-4535.0
-4969.0
-5245.0
-5461.0
-5489.0
-5162.0
-4468.0
-3585.0
-2751.0
-2146.0
-1809.0
-1656.0
-1547.0
-1386.0
-1189.0
-1049.0
-1016.0
-1031.0
-974.0
-801.0
-602.0
-492.0
-497.0
-558.0
-600.0
-592.0
-538.0
-447.0
-341.0
-256.0
-193.0
-108.0
-6.0
23.0
-110.0
-341.0
-470.0
-364.0
-157.0
-104.0
-262.0
-400.0
-289.0
-9.0
112.0
-71.0
-333.0
-329.0
-20.0
265.0
211.0
-130.0
-417.0
-411.0
-205.0
-65.0
-119.0
-252.0
