-631.0
-751.0
-527.0
-195.0
-96.0
-286.0
-525.0
-519.0
-232.0
67.0
91.0
-195.0
-562.0
-692.0
-526.0
-295.0
-245.0
-383.0
-483.0
-381.0
-201.0
-166.0
-323.0
-485.0
-472.0
-351.0
-295.0
-385.0
-494.0
-488.0
-376.0
-275.0
-292.0
-351.0
-319.0
-190.0
-125.0
-267.0
-537.0
-673.0
-517.0
-242.0
-185.0
-469.0
-820.0
-878.0
-574.0
-191.0
-68.0
-249.0
-506.0
-579.0
-397.0
-143.0
-53.0
-201.0
-460.0
-575.0
-441.0
-218.0
-144.0
-236.0
-303.0
-222.0
-56.0
17.0
-63.0
-191.0
-262.0
-240.0
-154.0
-59.0
-3.0
-28.0
-103.0
-74.0
170.0
492.0
600.0
358.0
-0.0
-142.0
-20.0
87.0
-89.0
-464.0
-745.0
-781.0
-674.0
-569.0
-469.0
-279.0
-36.0
104.0
45.0
-96.0
-137.0
-83.0
-111.0
-326.0
-600.0
-732.0
-671.0
-553.0
-513.0
-533.0
-474.0
-299.0
-133.0
-86.0
-121.0
-134.0
-129.0
-178.0
-304.0
-376.0
-288.0
-137.0
-131.0
-333.0
-536.0
-468.0
-96.0
306.0
414.0
152.0
-265.0
-473.0
-311.0
49.0
228.0
-8.0
-493.0
-816.0
-720.0
-388.0
-226.0
-366.0
-552.0
-490.0
-215.0
-28.0
-56.0
-134.0
-46.0
159.0
235.0
65.0
-212.0
-351.0
-257.0
-40.0
105.0
85.0
-24.0
-38.0
138.0
381.0
476.0
347.0
191.0
206.0
347.0
415.0
293.0
124.0
104.0
209.0
278.0
221.0
157.0
182.0
184.0
22.0
-232.0
-350.0
-224.0
-63.0
-144.0
-461.0
-685.0
-581.0
-279.0
-143.0
-334.0
-618.0
-636.0
-371.0
-149.0
-240.0
-534.0
-655.0
-462.0
-226.0
-284.0
-576.0
-692.0
-387.0
92.0
301.0
106.0
-160.0
-143.0
93.0
197.0
-15.0
-326.0
-427.0
-271.0
-89.0
-84.0
-207.0
-195.0
31.0
239.0
160.0
-167.0
-410.0
-310.0
-23.0
70.0
-148.0
-324.0
-35.0
704.0
1441.0
1837.0
2106.0
2710.0
3719.0
4646.0
4987.0
4770.0
4467.0
4417.0
4492.0
4321.0
3722.0
2811.0
1804.0
898.0
232.0
-181.0
-458.0
-762.0
-1142.0
-1414.0
-1411.0
-1184.0
-986.0
-935.0
-929.0
-831.0
-660.0
-568.0
-607.0
-643.0
-564.0
-397.0
-243.0
-149.0
-86.0
-41.0
-45.0
-100.0
-136.0
-85.0
28.0
91.0
30.0
-69.0
-82.0
11.0
123.0
178.0
222.0
310.0
387.0
324.0
142.0
27.0
121.0
388.0
588.0
554.0
348.0
168.0
147.0
229.0
291.0
289.0
262.0
296.0
399.0
521.0
574.0
490.0
346.0
305.0
430.0
594.0
541.0
232.0
-21.0
103.0
554.0
916.0
866.0
563.0
446.0
654.0
866.0
743.0
429.0
348.0
668.0
1064.0
1130.0
926.0
817.0
997.0
1257.0
1256.0
959.0
610.0
452.0
495.0
593.0
670.0
676.0
623.0
627.0
818.0
1172.0
1391.0
1188.0
678.0
277.0
294.0
523.0
487.0
47.0
-432.0
-545.0
-307.0
-81.0
-143.0
-398.0
-592.0
-614.0
-573.0
-614.0
-760.0
-924.0
-970.0
-835.0
-579.0
-339.0
-293.0
-469.0
-700.0
-787.0
-686.0
-587.0
-695.0
-1010.0
-1304.0
-1342.0
-1112.0
-806.0
-632.0
-627.0
-698.0
-745.0
-748.0
-751.0
-782.0
-836.0
-902.0
-981.0
-1055.0
-1092.0
-1074.0
-993.0
-872.0
-719.0
-577.0
-542.0
-657.0
-834.0
-879.0
-718.0
-534.0
-556.0
-784.0
-953.0
-869.0
-666.0
-600.0
-720.0
-813.0
-744.0
-633.0
-649.0
-754.0
-752.0
-583.0
-395.0
-350.0
-392.0
-390.0
-334.0
-360.0
-514.0
-668.0
-674.0
-581.0
-541.0
-616.0
-717.0
-738.0
-676.0
-617.0
-632.0
-682.0
-668.0
-606.0
-603.0
-680.0
-740.0
-657.0
-458.0
-363.0
-531.0
-822.0
-930.0
-742.0
-504.0
-538.0
-853.0
-1092.0
-966.0
-597.0
-337.0
-365.0
-520.0
-540.0
-383.0
-268.0
-392.0
-702.0
-972.0
-1044.0
-937.0
-803.0
-761.0
-760.0
-691.0
-518.0
-313.0
-171.0
-121.0
-171.0
-309.0
-489.0
-631.0
-655.0
-546.0
-395.0
-309.0
-297.0
-290.0
-224.0
-85.0
46.0
97.0
22.0
-190.0
-428.0
-530.0
-438.0
-242.0
-114.0
-157.0
-325.0
-475.0
-517.0
-462.0
-355.0
-262.0
-259.0
-372.0
-507.0
-534.0
-412.0
-235.0
-170.0
-244.0
-333.0
-320.0
-222.0
-147.0
-184.0
-294.0
-389.0
-424.0
-381.0
-266.0
-171.0
-201.0
-382.0
-556.0
-533.0
-292.0
-35.0
-19.0
-273.0
-567.0
-649.0
-467.0
-216.0
-168.0
-439.0
-829.0
-976.0
-715.0
-265.0
-57.0
-291.0
-736.0
-965.0
-812.0
-524.0
-429.0
-587.0
-794.0
-860.0
-783.0
-704.0
-722.0
-782.0
-822.0
-824.0
-786.0
-720.0
-604.0
-451.0
-332.0
-339.0
-485.0
-666.0
-723.0
-624.0
-540.0
-666.0
-992.0
-1257.0
-1201.0
-852.0
-523.0
-496.0
-730.0
-910.0
-797.0
-469.0
-262.0
-394.0
-711.0
-915.0
-824.0
-519.0
-197.0
66.0
316.0
639.0
1105.0
1803.0
2695.0
3521.0
3909.0
3712.0
3251.0
3011.0
3115.0
3191.0
2800.0
1917.0
924.0
195.0
-216.0
-464.0
-698.0
-1012.0
-1440.0
-1893.0
-2146.0
-2024.0
-1633.0
-1298.0
-1206.0
-1208.0
-1067.0
-795.0
-622.0
-717.0
-896.0
-946.0
-883.0
-865.0
-952.0
-999.0
-886.0
-684.0
-532.0
-458.0
-361.0
-220.0
-170.0
-315.0
-550.0
-607.0
-390.0
-106.0
-24.0
-175.0
-342.0
-327.0
-188.0
-131.0
-215.0
-269.0
-123.0
143.0
255.0
46.0
-323.0
-539.0
-463.0
-269.0
-248.0
-467.0
-712.0
-746.0
-497.0
-121.0
158.0
232.0
149.0
53.0
99.0
308.0
522.0
523.0
291.0
66.0
107.0
405.0
639.0
537.0
200.0
-30.0
61.0
303.0
377.0
200.0
-15.0
-4.0
249.0
547.0
730.0
777.0
736.0
638.0
564.0
624.0
795.0
916.0
817.0
566.0
437.0
571.0
802.0
843.0
610.0
328.0
248.0
366.0
467.0
378.0
165.0
-3.0
-29.0
30.0
48.0
-55.0
-235.0
-395.0
-455.0
-422.0
-366.0
-354.0
-386.0
-422.0
-473.0
-594.0
-763.0
-865.0
-810.0
-656.0
-570.0
-640.0
-714.0
-590.0
-335.0
-192.0
-299.0
-526.0
-645.0
-632.0
-652.0
-802.0
-986.0
-1079.0
-1106.0
-1174.0
-1226.0
-1119.0
-876.0
-738.0
-880.0
-1116.0
-1092.0
-758.0
-469.0
-568.0
-946.0
-1151.0
-936.0
-558.0
-432.0
-686.0
-1054.0
-1173.0
-980.0
-712.0
-667.0
-925.0
-1243.0
-1299.0
-994.0
-571.0
-436.0
-720.0
-1092.0
-1094.0
-646.0
-147.0
-74.0
-470.0
-921.0
-1016.0
-755.0
-509.0
-577.0
-879.0
-1091.0
-1012.0
-772.0
-628.0
-670.0
-751.0
-696.0
-537.0
-471.0
-580.0
-704.0
-649.0
-401.0
-160.0
-175.0
-430.0
-667.0
-658.0
-425.0
-205.0
-211.0
-396.0
-535.0
-471.0
-271.0
-132.0
-140.0
-193.0
-213.0
-231.0
-311.0
-364.0
-231.0
48.0
177.0
-64.0
-434.0
-504.0
-170.0
153.0
8.0
-510.0
-838.0
-628.0
-165.0
-9.0
-303.0
-644.0
-610.0
-271.0
1.0
38.0
-12.0
-0.0
16.0
-56.0
-143.0
-80.0
87.0
87.0
-182.0
-445.0
-349.0
66.0
383.0
312.0
-9.0
-176.0
-31.0
221.0
298.0
161.0
-35.0
-185.0
-267.0
-252.0
-152.0
3.0
111.0
119.0
86.0
92.0
130.0
129.0
70.0
21.0
37.0
70.0
74.0
114.0
284.0
528.0
640.0
508.0
255.0
125.0
211.0
330.0
261.0
50.0
-68.0
50.0
271.0
354.0
225.0
21.0
-68.0
-8.0
77.0
50.0
-81.0
-196.0
-183.0
-21.0
135.0
131.0
-51.0
-252.0
-317.0
-257.0
-201.0
-234.0
-291.0
-287.0
-232.0
-171.0
-102.0
20.0
157.0
160.0
-48.0
-320.0
-430.0
-309.0
-164.0
-212.0
-391.0
-432.0
-223.0
39.0
90.0
-112.0
-325.0
-359.0
-269.0
-253.0
-366.0
-453.0
-374.0
-169.0
-10.0
20.0
-17.0
-5.0
87.0
212.0
376.0
592.0
893.0
1281.0
1799.0
2489.0
3274.0
3984.0
4436.0
4555.0
4439.0
4267.0
4135.0
3977.0
3551.0
2670.0
1439.0
276.0
-353.0
-378.0
-243.0
-475.0
-1130.0
-1762.0
-1884.0
-1464.0
-909.0
-641.0
-744.0
-947.0
-975.0
-807.0
-611.0
-541.0
-582.0
-622.0
-575.0
-506.0
-557.0
-702.0
-772.0
-657.0
-473.0
-430.0
-580.0
-738.0
-672.0
-406.0
-199.0
-181.0
-198.0
-45.0
212.0
265.0
-11.0
-342.0
-358.0
-99.0
-26.0
-466.0
-1138.0
-1419.0
-1052.0
-426.0
-115.0
-251.0
-445.0
-303.0
117.0
432.0
403.0
146.0
-47.0
-60.0
-26.0
-68.0
-146.0
-104.0
104.0
321.0
357.0
205.0
83.0
107.0
163.0
95.0
-90.0
-193.0
-78.0
97.0
102.0
-43.0
-30.0
342.0
843.0
1055.0
852.0
558.0
581.0
924.0
1231.0
1219.0
973.0
786.0
822.0
997.0
1149.0
1212.0
1206.0
1132.0
961.0
733.0
566.0
493.0
417.0
216.0
-89.0
-306.0
-268.0
-34.0
166.0
178.0
78.0
29.0
135.0
288.0
266.0
-20.0
-418.0
-667.0
-659.0
-559.0
-615.0
-829.0
-920.0
-706.0
-382.0
-353.0
-721.0
-1115.0
-1109.0
-741.0
-483.0
-664.0
-1071.0
-1215.0
-919.0
-490.0
-322.0
-445.0
-571.0
-519.0
-386.0
-339.0
-367.0
-352.0
-277.0
-259.0
-343.0
-423.0
-358.0
-208.0
-152.0
-215.0
-252.0
-140.0
25.0
52.0
-89.0
-223.0
-155.0
72.0
219.0
140.0
-66.0
-170.0
-42.0
241.0
448.0
402.0
146.0
-62.0
17.0
330.0
525.0
331.0
-56.0
-123.0
328.0
850.0
826.0
229.0
-299.0
-195.0
325.0
551.0
178.0
-354.0
-395.0
105.0
590.0
592.0
240.0
9.0
101.0
300.0
344.0
205.0
35.0
-89.0
-203.0
-275.0
-220.0
-8.0
212.0
252.0
89.0
-66.0
-24.0
236.0
526.0
618.0
438.0
136.0
-35.0
89.0
422.0
678.0
644.0
383.0
149.0
144.0
316.0
464.0
475.0
390.0
279.0
157.0
64.0
107.0
363.0
693.0
797.0
566.0
252.0
207.0
455.0
655.0
501.0
115.0
-114.0
8.0
283.0
436.0
402.0
368.0
445.0
538.0
503.0
378.0
319.0
377.0
444.0
392.0
238.0
108.0
68.0
43.0
-34.0
-94.0
-34.0
115.0
185.0
95.0
-8.0
90.0
384.0
581.0
475.0
189.0
26.0
106.0
239.0
245.0
144.0
111.0
217.0
337.0
375.0
374.0
408.0
478.0
496.0
437.0
327.0
210.0
120.0
126.0
256.0
381.0
309.0
50.0
-162.0
-119.0
84.0
132.0
-86.0
-313.0
-232.0
87.0
277.0
128.0
-144.0
-219.0
-60.0
46.0
-113.0
-413.0
-558.0
-461.0
-329.0
-353.0
-483.0
-531.0
-427.0
-324.0
-352.0
-427.0
-390.0
-251.0
-208.0
-352.0
-495.0
-388.0
-89.0
51.0
-157.0
-474.0
-518.0
-234.0
27.0
-70.0
-403.0
-569.0
-360.0
7.0
211.0
173.0
112.0
273.0
738.0
1424.0
2181.0
2883.0
3476.0
3973.0
4434.0
4846.0
5081.0
4991.0
4581.0
3972.0
3273.0
2461.0
1501.0
484.0
-387.0
-973.0
-1317.0
-1566.0
-1802.0
-1987.0
-2018.0
-1853.0
-1554.0
-1233.0
-989.0
-894.0
-933.0
-1042.0
-1087.0
-1022.0
-906.0
-869.0
-997.0
-1234.0
-1416.0
-1409.0
-1201.0
-925.0
-763.0
-779.0
-877.0
-882.0
-716.0
-487.0
-381.0
-477.0
-624.0
-636.0
-498.0
-379.0
-423.0
-600.0
-734.0
-717.0
-598.0
-475.0
-419.0
-464.0
-581.0
-655.0
-573.0
-364.0
-227.0
-338.0
-562.0
-599.0
-343.0
-72.0
-117.0
-435.0
-639.0
-508.0
-229.0
-144.0
-320.0
-490.0
-446.0
-240.0
-37.0
88.0
169.0
233.0
244.0
176.0
98.0
73.0
94.0
133.0
200.0
283.0
329.0
335.0
314.0
299.0
278.0
237.0
232.0
352.0
540.0
644.0
608.0
588.0
778.0
1138.0
1364.0
1203.0
759.0
389.0
362.0
567.0
664.0
456.0
101.0
-100.0
-11.0
223.0
358.0
299.0
125.0
-21.0
-92.0
-120.0
-141.0
-160.0
-204.0
-309.0
-433.0
-488.0
-440.0
-332.0
-279.0
-362.0
-585.0
-822.0
-887.0
-711.0
-452.0
-366.0
-548.0
-804.0
-848.0
-629.0
-402.0
-402.0
-560.0
-641.0
-544.0
-403.0
-394.0
-511.0
-572.0
-503.0
-425.0
-452.0
-566.0
-644.0
-608.0
-530.0
-506.0
-557.0
-538.0
-328.0
19.0
259.0
188.0
-116.0
-348.0
-285.0
-77.0
-80.0
-472.0
-1014.0
-1236.0
-958.0
-464.0
-160.0
-191.0
-359.0
-382.0
-198.0
20.0
107.0
42.0
-83.0
-214.0
-308.0
-299.0
-163.0
20.0
99.0
-25.0
-243.0
-347.0
-296.0
-214.0
-282.0
-511.0
-735.0
-776.0
-626.0
-423.0
-318.0
-334.0
-353.0
-299.0
-210.0
-196.0
-310.0
-446.0
-478.0
-383.0
-280.0
-286.0
-394.0
-498.0
-533.0
-502.0
-448.0
-437.0
-514.0
-616.0
-608.0
-441.0
-274.0
-276.0
-402.0
-408.0
-170.0
61.0
-63.0
-475.0
-734.0
-568.0
-245.0
-277.0
-725.0
-1087.0
-930.0
-458.0
-238.0
-463.0
-756.0
-703.0
-416.0
-295.0
-443.0
-562.0
-419.0
-172.0
-131.0
-266.0
-238.0
86.0
363.0
207.0
-280.0
-576.0
-400.0
-42.0
32.0
-235.0
-477.0
-393.0
-124.0
-7.0
-133.0
-273.0
-252.0
-147.0
-143.0
-266.0
-385.0
-385.0
-269.0
-89.0
106.0
259.0
263.0
137.0
11.0
23.0
129.0
130.0
-54.0
-299.0
-432.0
-389.0
-265.0
-181.0
-193.0
-270.0
-383.0
-496.0
-556.0
-561.0
-570.0
-611.0
-618.0
-487.0
-278.0
-184.0
-311.0
-505.0
-502.0
-290.0
-133.0
-261.0
-585.0
-802.0
-762.0
-621.0
-599.0
-676.0
-698.0
-606.0
-536.0
-575.0
-657.0
-664.0
-601.0
-565.0
-585.0
-553.0
-442.0
-350.0
-363.0
-408.0
-377.0
-285.0
-262.0
-371.0
-522.0
-598.0
-590.0
-520.0
-337.0
-29.0
246.0
321.0
322.0
620.0
1379.0
2250.0
2730.0
2770.0
2832.0
3271.0
3854.0
4040.0
3649.0
3048.0
2646.0
2402.0
1939.0
1124.0
235.0
-409.0
-824.0
-1225.0
-1695.0
-2017.0
-2020.0
-1824.0
-1693.0
-1712.0
-1694.0
-1460.0
-1130.0
-985.0
-1127.0
-1337.0
-1305.0
-1003.0
-713.0
-709.0
-970.0
-1196.0
-1136.0
-830.0
-550.0
-511.0
-691.0
-884.0
-919.0
-807.0
-666.0
-593.0
-603.0
-639.0
-678.0
-690.0
-633.0
-503.0
-379.0
-376.0
-514.0
-623.0
-579.0
-464.0
-488.0
-702.0
-867.0
-726.0
-356.0
-119.0
-214.0
-448.0
-483.0
-247.0
-7.0
-3.0
-207.0
-405.0
-488.0
-525.0
-559.0
-532.0
-423.0
-326.0
-337.0
-430.0
-420.0
-223.0
33.0
171.0
137.0
81.0
162.0
378.0
575.0
599.0
469.0
376.0
481.0
723.0
876.0
788.0
573.0
478.0
589.0
747.0
749.0
586.0
424.0
343.0
258.0
106.0
-33.0
-23.0
116.0
208.0
123.0
-51.0
-128.0
-47.0
70.0
72.0
-9.0
-57.0
-46.0
-75.0
-224.0
-397.0
-446.0
-390.0
-451.0
-777.0
-1192.0
-1361.0
-1184.0
-933.0
-913.0
-1122.0
-1268.0
-1152.0
-906.0
-788.0
-883.0
-1017.0
-1039.0
-993.0
-984.0
-1013.0
-1008.0
-959.0
-923.0
-913.0
-884.0
-805.0
-758.0
-836.0
-991.0
-1051.0
-910.0
-681.0
-586.0
-696.0
-844.0
-821.0
-630.0
-499.0
-611.0
-886.0
-1032.0
-907.0
-695.0
-650.0
-762.0
-802.0
-626.0
-411.0
-431.0
-666.0
-809.0
-655.0
-381.0
-337.0
-611.0
-884.0
-839.0
-511.0
-248.0
-310.0
-580.0
-723.0
-596.0
-375.0
-308.0
-416.0
-515.0
-490.0
-427.0
-450.0
-524.0
-489.0
-320.0
-215.0
-354.0
-638.0
-737.0
-521.0
-224.0
-155.0
-347.0
-546.0
-519.0
-334.0
-224.0
-270.0
-337.0
-314.0
-275.0
-378.0
-605.0
-720.0
-581.0
-298.0
-158.0
-345.0
-699.0
-872.0
-676.0
-261.0
11.0
-115.0
-532.0
-852.0
-769.0
-371.0
-52.0
-95.0
-395.0
-601.0
-551.0
-406.0
-373.0
-408.0
-330.0
-101.0
35.0
-110.0
-374.0
-416.0
-146.0
164.0
182.0
-127.0
-482.0
-610.0
-489.0
-296.0
-216.0
-291.0
-435.0
-494.0
-360.0
-96.0
116.0
150.0
59.0
-9.0
22.0
85.0
64.0
-58.0
-178.0
-196.0
-123.0
-9.0
85.0
117.0
61.0
-75.0
-251.0
-388.0
-482.0
-556.0
-644.0
-796.0
-988.0
-1111.0
-1031.0
-723.0
-345.0
-153.0
-287.0
-615.0
-848.0
-836.0
-727.0
-784.0
-1093.0
-1440.0
-1522.0
-1296.0
-1007.0
-924.0
-1023.0
-1052.0
-844.0
-565.0
-515.0
-761.0
-1049.0
-1086.0
-908.0
-793.0
-884.0
-1023.0
-987.0
-796.0
-701.0
-833.0
-1035.0
-1116.0
-1089.0
-1169.0
-1447.0
-1745.0
-1796.0
-1530.0
-1120.0
-768.0
-500.0
-165.0
402.0
1205.0
2014.0
2535.0
2672.0
2595.0
2583.0
2694.0
2706.0
2364.0
1674.0
893.0
266.0
-228.0
-771.0
-1440.0
-2105.0
-2597.0
-2865.0
-2959.0
-2948.0
-2834.0
-2603.0
-2281.0
-1942.0
-1676.0
-1546.0
-1575.0
-1686.0
-1741.0
-1644.0
-1473.0
-1420.0
-1579.0
-1802.0
-1862.0
-1699.0
-1450.0
-1287.0
-1223.0
-1186.0
-1175.0
-1254.0
-1386.0
-1402.0
-1199.0
-919.0
-799.0
-895.0
-1022.0
-983.0
-797.0
-644.0
-624.0
-703.0
-832.0
-987.0
-1083.0
-1024.0
-829.0
-690.0
-756.0
-930.0
-980.0
-814.0
-606.0
-527.0
-539.0
-490.0
-354.0
-306.0
-468.0
-681.0
-688.0
-453.0
-230.0
-281.0
-541.0
-693.0
-555.0
-238.0
-48.0
-128.0
-303.0
-305.0
-61.0
226.0
319.0
178.0
3.0
9.0
202.0
381.0
362.0
198.0
152.0
349.0
609.0
629.0
351.0
83.0
134.0
449.0
657.0
535.0
265.0
160.0
306.0
465.0
402.0
184.0
39.0
60.0
117.0
59.0
-116.0
-258.0
-310.0
-333.0
-423.0
-599.0
-760.0
-770.0
-587.0
-333.0
-194.0
-268.0
-466.0
-593.0
-580.0
-518.0
-555.0
-734.0
-976.0
-1149.0
-1144.0
-946.0
-697.0
-585.0
-660.0
-748.0
-637.0
-364.0
-189.0
-294.0
-548.0
-670.0
-601.0
-513.0
-531.0
-563.0
-518.0
-502.0
-670.0
-926.0
-974.0
-749.0
-573.0
-762.0
-1185.0
-1347.0
-1003.0
-473.0
-269.0
-510.0
-818.0
-783.0
-452.0
-217.0
-308.0
-554.0
-629.0
-432.0
-189.0
-158.0
-354.0
-526.0
-464.0
-273.0
-243.0
-511.0
-904.0
-1133.0
-1130.0
-1065.0
-1085.0
-1125.0
-1026.0
-760.0
-455.0
-243.0
-119.0
10.0
147.0
174.0
19.0
-216.0
-364.0
-348.0
-249.0
-234.0
-364.0
-500.0
-403.0
-2.0
470.0
629.0
348.0
-70.0
-226.0
-74.0
-13.0
-387.0
-1014.0
-1339.0
-1067.0
-526.0
-269.0
-437.0
-633.0
-471.0
-92.0
82.0
-99.0
-371.0
-446.0
-376.0
-357.0
-426.0
-443.0
-374.0
-344.0
-406.0
-399.0
-212.0
-47.0
-238.0
-729.0
-1041.0
-823.0
-327.0
-88.0
-292.0
-563.0
-466.0
-68.0
215.0
125.0
-122.0
-215.0
-140.0
-108.0
-247.0
-402.0
-362.0
-124.0
108.0
167.0
96.0
38.0
73.0
180.0
269.0
274.0
169.0
5.0
-150.0
-232.0
-209.0
-109.0
-25.0
-75.0
-265.0
-466.0
-535.0
-464.0
-378.0
-372.0
-422.0
-444.0
-429.0
-450.0
-517.0
-527.0
-411.0
-303.0
-380.0
-643.0
-867.0
-827.0
-589.0
-411.0
-422.0
-492.0
-437.0
-262.0
-142.0
-186.0
-293.0
-314.0
-241.0
-212.0
-315.0
-458.0
-509.0
-441.0
-370.0
-409.0
-536.0
-632.0
-647.0
-609.0
-593.0
-629.0
-637.0
-542.0
-380.0
-240.0
-152.0
-49.0
135.0
440.0
886.0
1487.0
2213.0
2895.0
3354.0
3594.0
3785.0
4045.0
4250.0
4154.0
3681.0
3009.0
2324.0
1622.0
811.0
-58.0
-788.0
-1291.0
-1663.0
-2015.0
-2291.0
-2352.0
-2189.0
-1913.0
-1625.0
-1306.0
-976.0
-755.0
-724.0
-813.0
-852.0
-757.0
-670.0
-770.0
-1038.0
-1269.0
-1267.0
-1033.0
-760.0
-639.0
-679.0
-723.0
-637.0
-461.0
-376.0
-470.0
-626.0
-687.0
-644.0
-582.0
-531.0
-443.0
-361.0
-459.0
-772.0
-1047.0
-954.0
-534.0
-184.0
-235.0
-554.0
-715.0
-524.0
-213.0
-123.0
-307.0
-527.0
-571.0
-474.0
-410.0
-510.0
-731.0
-885.0
-777.0
-407.0
-19.0
89.0
-92.0
-267.0
-166.0
118.0
284.0
172.0
-71.0
-204.0
-199.0
-173.0
-131.0
29.0
288.0
436.0
316.0
65.0
-47.0
75.0
247.0
316.0
329.0
369.0
404.0
347.0
280.0
423.0
800.0
1073.0
911.0
422.0
73.0
168.0
501.0
613.0
333.0
-44.0
-182.0
-64.0
64.0
19.0
-150.0
-315.0
-394.0
-371.0
-281.0
-199.0
-204.0
-355.0
-565.0
-639.0
-516.0
-344.0
-357.0
-622.0
-936.0
-1009.0
-778.0
-479.0
-449.0
-751.0
-1076.0
-1052.0
-650.0
-256.0
-234.0
-525.0
-750.0
-637.0
-353.0
-234.0
-361.0
-516.0
-549.0
-531.0
-621.0
-784.0
-817.0
-688.0
-622.0
-792.0
-1038.0
-1028.0
-649.0
-197.0
-31.0
-195.0
-440.0
-463.0
-239.0
-32.0
-58.0
-279.0
-488.0
-521.0
-460.0
-470.0
-586.0
-636.0
-471.0
-234.0
-221.0
-506.0
-792.0
-711.0
-292.0
62.0
-3.0
-381.0
-656.0
-573.0
-292.0
-133.0
-229.0
-469.0
-663.0
-716.0
-636.0
-476.0
-317.0
-269.0
-367.0
-507.0
-565.0
-518.0
-483.0
-559.0
-672.0
-673.0
-567.0
-480.0
-496.0
-532.0
-462.0
-310.0
-255.0
-399.0
-595.0
-622.0
-478.0
-380.0
-483.0
-659.0
-658.0
-422.0
-178.0
-172.0
-378.0
-522.0
-412.0
-150.0
30.0
1.0
-153.0
-269.0
-260.0
-153.0
-45.0
-65.0
-254.0
-529.0
-731.0
-766.0
-672.0
-548.0
-477.0
-448.0
-429.0
-420.0
-367.0
-181.0
138.0
422.0
476.0
266.0
-11.0
-108.0
8.0
138.0
47.0
-276.0
-571.0
-599.0
-349.0
-40.0
120.0
131.0
140.0
211.0
293.0
305.0
280.0
286.0
295.0
194.0
-12.0
-190.0
-191.0
-65.0
-4.0
-115.0
-305.0
-434.0
-472.0
-509.0
-583.0
-656.0
-675.0
-641.0
-591.0
-543.0
