-787.0
-738.0
-858.0
-1013.0
-1060.0
-1007.0
-989.0
-1091.0
-1223.0
-1208.0
-984.0
-707.0
-594.0
-665.0
-729.0
-604.0
-373.0
-291.0
-445.0
-644.0
-660.0
-530.0
-511.0
-728.0
-995.0
-1072.0
-983.0
-958.0
-1127.0
-1349.0
-1414.0
-1316.0
-1206.0
-1188.0
-1190.0
-1139.0
-1081.0
-1075.0
-1093.0
-1066.0
-1024.0
-1067.0
-1214.0
-1359.0
-1380.0
-1316.0
-1303.0
-1393.0
-1483.0
-1452.0
-1324.0
-1231.0
-1250.0
-1311.0
-1273.0
-1113.0
-953.0
-940.0
-1085.0
-1256.0
-1293.0
-1188.0
-1093.0
-1149.0
-1336.0
-1490.0
-1468.0
-1289.0
-1084.0
-967.0
-926.0
-870.0
-739.0
-587.0
-505.0
-537.0
-634.0
-700.0
-673.0
-533.0
-300.0
-22.0
272.0
613.0
1063.0
1656.0
2341.0
2986.0
3468.0
3741.0
3834.0
3744.0
3422.0
2834.0
2034.0
1131.0
219.0
-689.0
-1565.0
-2306.0
-2778.0
-2932.0
-2834.0
-2623.0
-2371.0
-2096.0
-1783.0
-1456.0
-1183.0
-1006.0
-925.0
-938.0
-1029.0
-1166.0
-1277.0
-1296.0
-1223.0
-1146.0
-1168.0
-1290.0
-1397.0
-1365.0
-1225.0
-1137.0
-1183.0
-1261.0
-1188.0
-918.0
-631.0
-557.0
-722.0
-929.0
-967.0
-833.0
-709.0
-739.0
-884.0
-994.0
-985.0
-896.0
-787.0
-687.0
-583.0
-489.0
-443.0
-446.0
-472.0
-502.0
-540.0
-577.0
-571.0
-500.0
-419.0
-407.0
-453.0
-455.0
-333.0
-142.0
-27.0
-47.0
-124.0
-135.0
-47.0
61.0
92.0
38.0
-25.0
-21.0
43.0
79.0
32.0
-48.0
-42.0
100.0
266.0
285.0
133.0
-10.0
42.0
256.0
413.0
378.0
261.0
267.0
431.0
587.0
570.0
414.0
293.0
334.0
503.0
654.0
686.0
614.0
544.0
575.0
687.0
778.0
765.0
693.0
678.0
756.0
831.0
833.0
855.0
1041.0
1351.0
1533.0
1408.0
1152.0
1109.0
1404.0
1769.0
1839.0
1595.0
1357.0
1409.0
1696.0
1921.0
1881.0
1663.0
1509.0
1551.0
1681.0
1704.0
1533.0
1274.0
1123.0
1156.0
1275.0
1307.0
1220.0
1145.0
1205.0
1329.0
1329.0
1129.0
854.0
682.0
621.0
486.0
131.0
-337.0
-636.0
-619.0
-426.0
-354.0
-514.0
-740.0
-799.0
-626.0
-410.0
-351.0
-472.0
-659.0
-813.0
-898.0
-918.0
-859.0
-748.0
-675.0
-731.0
-866.0
-943.0
-894.0
-792.0
-779.0
-878.0
-989.0
-1020.0
-981.0
-947.0
-953.0
-977.0
-992.0
-1031.0
-1125.0
-1235.0
-1282.0
-1238.0
-1136.0
-1047.0
-998.0
-954.0
-888.0
-812.0
-765.0
-786.0
-859.0
-954.0
-1077.0
-1206.0
-1269.0
-1186.0
-974.0
-769.0
-690.0
-699.0
-661.0
-519.0
-385.0
-400.0
-541.0
-648.0
-630.0
-563.0
-563.0
-621.0
-638.0
-575.0
-512.0
-524.0
-578.0
-588.0
-544.0
-515.0
-549.0
-613.0
-609.0
-515.0
-390.0
-335.0
-415.0
-581.0
-687.0
-624.0
-468.0
-445.0
-688.0
-1010.0
-1068.0
-764.0
-377.0
-270.0
-473.0
-672.0
-631.0
-430.0
-312.0
-364.0
-467.0
-514.0
-550.0
-650.0
-754.0
-728.0
-567.0
-408.0
-374.0
-445.0
-503.0
-491.0
-440.0
-400.0
-387.0
-393.0
-414.0
-451.0
-479.0
-452.0
-343.0
-177.0
-36.0
-16.0
-151.0
-345.0
-464.0
-453.0
-386.0
-389.0
-479.0
-565.0
-570.0
-491.0
-383.0
-289.0
-236.0
-242.0
-295.0
-341.0
-334.0
-296.0
-292.0
-336.0
-356.0
-294.0
-181.0
-96.0
-61.0
-55.0
-85.0
-160.0
-232.0
-213.0
-109.0
-81.0
-247.0
-490.0
-559.0
-356.0
-76.0
17.0
-119.0
-268.0
-252.0
-127.0
-55.0
-103.0
-202.0
-277.0
-341.0
-432.0
-524.0
-548.0
-485.0
-404.0
-393.0
-452.0
-501.0
-462.0
-353.0
-262.0
-268.0
-331.0
-343.0
-263.0
-150.0
-96.0
-114.0
-150.0
-160.0
-177.0
-246.0
-354.0
-435.0
-430.0
-353.0
-276.0
-258.0
-299.0
-337.0
-286.0
-143.0
-21.0
-40.0
-170.0
-245.0
-148.0
27.0
76.0
-63.0
-234.0
-259.0
-162.0
-101.0
-154.0
-246.0
-268.0
-227.0
-210.0
-243.0
-274.0
-262.0
-245.0
-283.0
-385.0
-492.0
-560.0
-593.0
-619.0
-653.0
-686.0
-710.0
-707.0
-641.0
-517.0
-404.0
-381.0
-464.0
-575.0
-631.0
-622.0
-603.0
-618.0
-670.0
-728.0
-759.0
-748.0
-676.0
-551.0
-415.0
-353.0
-389.0
-459.0
-462.0
-370.0
-268.0
-281.0
-430.0
-578.0
-575.0
-442.0
-322.0
-327.0
-408.0
-409.0
-241.0
49.0
348.0
611.0
874.0
1189.0
1578.0
2043.0
2549.0
3053.0
3481.0
3792.0
3967.0
3959.0
3704.0
3165.0
2406.0
1571.0
759.0
-49.0
-906.0
-1771.0
-2447.0
-2740.0
-2620.0
-2255.0
-1888.0
-1629.0
-1437.0
-1216.0
-964.0
-769.0
-697.0
-744.0
-840.0
-917.0
-981.0
-1053.0
-1100.0
-1060.0
-948.0
-871.0
-926.0
-1088.0
-1219.0
-1193.0
-1024.0
-819.0
-662.0
-551.0
-443.0
-334.0
-268.0
-289.0
-373.0
-451.0
-481.0
-497.0
-563.0
-698.0
-841.0
-877.0
-772.0
-604.0
-522.0
-592.0
-717.0
-738.0
-614.0
-456.0
-391.0
-420.0
-425.0
-341.0
-227.0
-195.0
-267.0
-352.0
-360.0
-298.0
-256.0
-267.0
-295.0
-274.0
-195.0
-102.0
-41.0
-38.0
-108.0
-241.0
-356.0
-359.0
-249.0
-144.0
-178.0
-328.0
-418.0
-300.0
-53.0
103.0
48.0
-105.0
-151.0
-36.0
96.0
97.0
-42.0
-195.0
-251.0
-207.0
-114.0
-24.0
41.0
93.0
160.0
257.0
362.0
452.0
516.0
575.0
637.0
692.0
720.0
736.0
800.0
920.0
1044.0
1126.0
1164.0
1189.0
1187.0
1138.0
1075.0
1078.0
1166.0
1261.0
1255.0
1143.0
1045.0
1084.0
1266.0
1471.0
1553.0
1468.0
1291.0
1174.0
1211.0
1358.0
1477.0
1457.0
1307.0
1112.0
947.0
818.0
710.0
628.0
583.0
522.0
362.0
121.0
-63.0
-73.0
60.0
167.0
102.0
-129.0
-394.0
-584.0
-679.0
-725.0
-772.0
-824.0
-885.0
-954.0
-1016.0
-1035.0
-979.0
-865.0
-807.0
-914.0
-1167.0
-1395.0
-1436.0
-1326.0
-1237.0
-1259.0
-1277.0
-1146.0
-917.0
-817.0
-953.0
-1152.0
-1171.0
-1003.0
-891.0
-1021.0
-1307.0
-1483.0
-1399.0
-1175.0
-1038.0
-1073.0
-1178.0
-1196.0
-1087.0
-940.0
-869.0
-904.0
-969.0
-976.0
-915.0
-831.0
-770.0
-731.0
-715.0
-721.0
-753.0
-795.0
-825.0
-864.0
-939.0
-1060.0
-1205.0
-1303.0
-1282.0
-1109.0
-841.0
-607.0
-523.0
-573.0
-616.0
-533.0
-361.0
-266.0
-362.0
-588.0
-793.0
-878.0
-844.0
-723.0
-565.0
-467.0
-537.0
-790.0
-1036.0
-1062.0
-860.0
-668.0
-730.0
-995.0
-1160.0
-999.0
-628.0
-368.0
-402.0
-614.0
-761.0
-755.0
-705.0
-725.0
-809.0
-878.0
-883.0
-839.0
-772.0
-695.0
-653.0
-681.0
-708.0
-628.0
-457.0
-392.0
-592.0
-915.0
-1040.0
-858.0
-609.0
-597.0
-819.0
-983.0
-895.0
-682.0
-576.0
-594.0
-565.0
-411.0
-285.0
-368.0
-620.0
-833.0
-883.0
-861.0
-905.0
-1007.0
-1043.0
-952.0
-800.0
-673.0
-564.0
-436.0
-317.0
-289.0
-391.0
-535.0
-612.0
-618.0
-619.0
-644.0
-666.0
-652.0
-668.0
-766.0
-879.0
-853.0
-640.0
-378.0
-274.0
-360.0
-471.0
-443.0
-315.0
-242.0
-276.0
-339.0
-359.0
-361.0
-396.0
-423.0
-327.0
-120.0
34.0
-22.0
-222.0
-362.0
-333.0
-253.0
-313.0
-536.0
-769.0
-855.0
-807.0
-746.0
-759.0
-832.0
-904.0
-931.0
-906.0
-832.0
-738.0
-697.0
-750.0
-851.0
-888.0
-789.0
-607.0
-467.0
-465.0
-570.0
-682.0
-717.0
-658.0
-499.0
-577.0
-596.0
-587.0
-588.0
-605.0
-570.0
-472.0
-402.0
-442.0
-561.0
-633.0
-577.0
-468.0
-436.0
-491.0
-516.0
-445.0
-359.0
-383.0
-517.0
-605.0
-521.0
-344.0
-275.0
-401.0
-581.0
-610.0
-451.0
-268.0
-236.0
-357.0
-486.0
-516.0
-479.0
-461.0
-478.0
-465.0
-379.0
-280.0
-253.0
-317.0
-399.0
-413.0
-345.0
-258.0
-227.0
-270.0
-329.0
-323.0
-209.0
-42.0
60.0
34.0
-96.0
-239.0
-324.0
-343.0
-367.0
-458.0
-570.0
-620.0
-591.0
-555.0
-589.0
-675.0
-720.0
-652.0
-522.0
-467.0
-556.0
-702.0
-757.0
-672.0
-551.0
-529.0
-630.0
-741.0
-748.0
-652.0
-566.0
-574.0
-645.0
-669.0
-599.0
-479.0
-414.0
-476.0
-640.0
-802.0
-873.0
-847.0
-795.0
-801.0
-855.0
-860.0
-738.0
-534.0
-379.0
-340.0
-384.0
-432.0
-456.0
-467.0
-495.0
-536.0
-562.0
-521.0
-337.0
26.0
474.0
851.0
1096.0
1380.0
1910.0
2626.0
3229.0
3503.0
3548.0
3617.0
3724.0
3628.0
3152.0
2436.0
1744.0
1118.0
366.0
-595.0
-1542.0
-2165.0
-2394.0
-2440.0
-2498.0
-2553.0
-2468.0
-2187.0
-1809.0
-1475.0
-1253.0
-1126.0
-1061.0
-1029.0
-1033.0
-1084.0
-1164.0
-1194.0
-1120.0
-994.0
-953.0
-1057.0
-1180.0
-1167.0
-1003.0
-841.0
-833.0
-971.0
-1092.0
-1074.0
-951.0
-850.0
-852.0
-907.0
-897.0
-755.0
-562.0
-457.0
-504.0
-612.0
-642.0
-592.0
-592.0
-719.0
-869.0
-869.0
-720.0
-600.0
-642.0
-758.0
-753.0
-568.0
-359.0
-305.0
-402.0
-508.0
-531.0
-503.0
-490.0
-524.0
-569.0
-592.0
-586.0
-562.0
-517.0
-460.0
-400.0
-356.0
-346.0
-368.0
-381.0
-336.0
-254.0
-208.0
-234.0
-288.0
-278.0
-191.0
-105.0
-87.0
-111.0
-99.0
-43.0
6.0
19.0
25.0
62.0
110.0
137.0
175.0
288.0
448.0
525.0
437.0
253.0
130.0
142.0
202.0
201.0
142.0
127.0
226.0
398.0
567.0
724.0
896.0
1079.0
1227.0
1305.0
1328.0
1346.0
1378.0
1410.0
1422.0
1403.0
1353.0
1268.0
1176.0
1150.0
1253.0
1430.0
1525.0
1453.0
1296.0
1220.0
1285.0
1386.0
1399.0
1290.0
1113.0
915.0
722.0
575.0
526.0
533.0
483.0
319.0
152.0
140.0
274.0
345.0
179.0
-136.0
-352.0
-385.0
-403.0
-582.0
-854.0
-982.0
-854.0
-656.0
-619.0
-735.0
-793.0
-689.0
-583.0
-681.0
-949.0
-1116.0
-1037.0
-887.0
-922.0
-1151.0
-1311.0
-1202.0
-933.0
-788.0
-892.0
-1077.0
-1115.0
-981.0
-824.0
-760.0
-755.0
-728.0
-652.0
-567.0
-506.0
-456.0
-433.0
-492.0
-648.0
-848.0
-992.0
-1019.0
-943.0
-838.0
-766.0
-731.0
-699.0
-614.0
-477.0
-338.0
-274.0
-317.0
-446.0
-595.0
-686.0
-686.0
-627.0
-591.0
-620.0
-676.0
-676.0
-592.0
-506.0
-517.0
-614.0
-690.0
-672.0
-602.0
-571.0
-587.0
-568.0
-451.0
-302.0
-216.0
-223.0
-274.0
-332.0
-414.0
-528.0
-630.0
-652.0
-603.0
-560.0
-563.0
-557.0
-448.0
-266.0
-148.0
-180.0
-301.0
-386.0
-394.0
-407.0
-486.0
-587.0
-589.0
-459.0
-296.0
-231.0
-290.0
-370.0
-370.0
-290.0
-230.0
-300.0
-507.0
-731.0
-814.0
-711.0
-557.0
-545.0
-692.0
-823.0
-780.0
-592.0
-455.0
-479.0
-577.0
-587.0
-489.0
-389.0
-361.0
-347.0
-258.0
-138.0
-128.0
-278.0
-461.0
-505.0
-384.0
-264.0
-305.0
-497.0
-656.0
-628.0
-475.0
-402.0
-503.0
-644.0
-613.0
-386.0
-176.0
-168.0
-301.0
-351.0
-226.0
-57.0
-23.0
-121.0
-193.0
-133.0
-47.0
-88.0
-237.0
-342.0
-298.0
-147.0
-66.0
-152.0
-329.0
-422.0
-322.0
-110.0
7.0
-95.0
-316.0
-422.0
-287.0
-26.0
107.0
2.0
-221.0
-348.0
-285.0
-129.0
-26.0
-29.0
-74.0
-48.0
88.0
255.0
346.0
329.0
277.0
282.0
329.0
300.0
138.0
-47.0
-82.0
40.0
123.0
17.0
-212.0
-323.0
-197.0
9.0
52.0
-121.0
-324.0
-354.0
-214.0
-63.0
-21.0
-60.0
-103.0
-145.0
-245.0
-403.0
-521.0
-516.0
-422.0
-362.0
-380.0
-397.0
-332.0
-208.0
-139.0
-186.0
-287.0
-342.0
-342.0
-360.0
-424.0
-467.0
-413.0
-292.0
-228.0
-259.0
-288.0
-192.0
-26.0
27.0
-118.0
-292.0
-234.0
98.0
454.0
591.0
612.0
858.0
1490.0
2263.0
2804.0
3047.0
3277.0
3752.0
4350.0
4705.0
4614.0
4196.0
3662.0
3060.0
2288.0
1332.0
341.0
-510.0
-1157.0
-1631.0
-1946.0
-2066.0
-1979.0
-1726.0
-1419.0
-1144.0
-947.0
-829.0
-774.0
-733.0
-661.0
-560.0
-508.0
-599.0
-823.0
-1023.0
-996.0
-723.0
-419.0
-344.0
-536.0
-776.0
-832.0
-678.0
-492.0
-422.0
-455.0
-487.0
-448.0
-336.0
-198.0
-89.0
-41.0
-35.0
-36.0
-18.0
-4.0
-8.0
-18.0
27.0
109.0
153.0
107.0
22.0
3.0
73.0
131.0
78.0
-39.0
-75.0
22.0
158.0
218.0
197.0
207.0
323.0
486.0
558.0
481.0
326.0
185.0
73.0
-33.0
-91.0
-16.0
208.0
448.0
534.0
