-788.0
-863.0
-854.0
-771.0
-688.0
-655.0
-649.0
-626.0
-578.0
-550.0
-571.0
-617.0
-640.0
-622.0
-578.0
-535.0
-500.0
-471.0
-459.0
-490.0
-546.0
-575.0
-535.0
-455.0
-409.0
-430.0
-468.0
-452.0
-383.0
-350.0
-415.0
-531.0
-583.0
-525.0
-418.0
-360.0
-369.0
-382.0
-355.0
-338.0
-388.0
-474.0
-493.0
-412.0
-307.0
-293.0
-371.0
-432.0
-382.0
-276.0
-246.0
-347.0
-484.0
-521.0
-424.0
-279.0
-198.0
-216.0
-284.0
-349.0
-391.0
-412.0
-414.0
-401.0
-385.0
-380.0
-381.0
-363.0
-314.0
-263.0
-256.0
-298.0
-344.0
-343.0
-302.0
-267.0
-265.0
-272.0
-264.0
-257.0
-293.0
-364.0
-403.0
-363.0
-285.0
-249.0
-275.0
-297.0
-271.0
-235.0
-267.0
-370.0
-458.0
-455.0
-388.0
-337.0
-332.0
-322.0
-272.0
-208.0
-204.0
-270.0
-343.0
-358.0
-326.0
-296.0
-302.0
-321.0
-316.0
-284.0
-265.0
-280.0
-311.0
-313.0
-273.0
-214.0
-179.0
-178.0
-191.0
-190.0
-188.0
-210.0
-256.0
-292.0
-294.0
-265.0
-228.0
-194.0
-165.0
-150.0
-168.0
-219.0
-263.0
-255.0
-203.0
-160.0
-164.0
-191.0
-189.0
-145.0
-111.0
-143.0
-233.0
-313.0
-327.0
-283.0
-227.0
-195.0
-189.0
-188.0
-183.0
-196.0
-237.0
-284.0
-295.0
-258.0
-206.0
-189.0
-213.0
-241.0
-233.0
-196.0
-169.0
-180.0
-209.0
-224.0
-194.0
-127.0
-57.0
-25.0
-58.0
-154.0
-259.0
-313.0
-294.0
-241.0
-202.0
-190.0
-176.0
-147.0
-112.0
-103.0
-127.0
-161.0
-183.0
-192.0
-190.0
-179.0
-154.0
-114.0
-71.0
-56.0
-87.0
-145.0
-183.0
-165.0
-111.0
-78.0
-97.0
-138.0
-147.0
-126.0
-128.0
-172.0
-205.0
-170.0
-84.0
-27.0
-41.0
-71.0
-55.0
-8.0
-19.0
-118.0
-219.0
-216.0
-126.0
-58.0
-80.0
-130.0
-113.0
-32.0
4.0
-72.0
-194.0
-230.0
-150.0
-44.0
-24.0
-82.0
-128.0
-99.0
-46.0
-56.0
-147.0
-231.0
-229.0
-146.0
-68.0
-59.0
-110.0
-163.0
-191.0
-210.0
-243.0
-274.0
-284.0
-267.0
-241.0
-212.0
-173.0
-127.0
-107.0
-135.0
-183.0
-195.0
-156.0
-115.0
-114.0
-131.0
-109.0
-38.0
13.0
-11.0
-75.0
-82.0
-0.0
104.0
148.0
126.0
101.0
105.0
91.0
7.0
-110.0
-173.0
-145.0
-89.0
-84.0
-132.0
-160.0
-125.0
-74.0
-83.0
-160.0
-239.0
-252.0
-210.0
-164.0
-151.0
-154.0
-152.0
-147.0
-173.0
-231.0
-283.0
-283.0
-232.0
-173.0
-142.0
-126.0
-88.0
-27.0
-1.0
-44.0
-127.0
-170.0
-135.0
-54.0
8.0
34.0
52.0
79.0
93.0
86.0
110.0
255.0
540.0
895.0
1245.0
1615.0
2107.0
2757.0
3400.0
3769.0
3701.0
3283.0
2724.0
2125.0
1386.0
376.0
-823.0
-1905.0
-2582.0
-2811.0
-2761.0
-2590.0
-2302.0
-1826.0
-1188.0
-557.0
-109.0
98.0
124.0
55.0
-53.0
-169.0
-265.0
-324.0
-335.0
-304.0
-236.0
-155.0
-98.0
-104.0
-163.0
-222.0
-229.0
-186.0
-132.0
-90.0
-38.0
39.0
107.0
100.0
4.0
-117.0
-173.0
-152.0
-112.0
-112.0
-132.0
-116.0
-44.0
24.0
23.0
-42.0
-98.0
-98.0
-46.0
10.0
45.0
51.0
40.0
15.0
-15.0
-31.0
-21.0
2.0
27.0
50.0
81.0
117.0
140.0
136.0
115.0
94.0
81.0
75.0
81.0
120.0
178.0
208.0
180.0
120.0
78.0
78.0
90.0
83.0
73.0
106.0
174.0
231.0
242.0
232.0
235.0
244.0
224.0
182.0
172.0
239.0
342.0
406.0
393.0
350.0
339.0
377.0
413.0
403.0
365.0
372.0
458.0
580.0
649.0
629.0
559.0
526.0
558.0
612.0
627.0
616.0
630.0
693.0
753.0
757.0
714.0
680.0
687.0
715.0
725.0
726.0
757.0
838.0
929.0
977.0
959.0
896.0
841.0
823.0
829.0
821.0
788.0
756.0
759.0
785.0
773.0
683.0
570.0
526.0
569.0
610.0
564.0
449.0
359.0
337.0
324.0
234.0
76.0
-63.0
-123.0
-145.0
-193.0
-274.0
-337.0
-362.0
-390.0
-480.0
-621.0
-746.0
-795.0
-777.0
-736.0
-722.0
-748.0
-802.0
-857.0
-896.0
-913.0
-934.0
-970.0
-1012.0
-1017.0
-969.0
-896.0
-854.0
-863.0
-900.0
-928.0
-934.0
-920.0
-902.0
-876.0
-846.0
-817.0
-804.0
-806.0
-811.0
-812.0
-804.0
-794.0
-791.0
-787.0
-767.0
-720.0
-668.0
-654.0
-704.0
-793.0
-852.0
-841.0
-788.0
-744.0
-729.0
-712.0
-672.0
-630.0
-627.0
-669.0
-703.0
-686.0
-636.0
-611.0
-628.0
-644.0
-608.0
-532.0
-486.0
-523.0
-607.0
-658.0
-628.0
-556.0
-505.0
-499.0
-504.0
-500.0
-503.0
-540.0
-580.0
-573.0
-515.0
-471.0
-478.0
-497.0
-459.0
-369.0
-309.0
-349.0
-455.0
-531.0
-530.0
-496.0
-478.0
-473.0
-444.0
-396.0
-370.0
-396.0
-441.0
-450.0
-415.0
-381.0
-381.0
-395.0
-378.0
-327.0
-292.0
-329.0
-426.0
-502.0
-489.0
-415.0
-375.0
-419.0
-484.0
-460.0
-328.0
-204.0
-228.0
-383.0
-511.0
-485.0
-352.0
-266.0
-310.0
-412.0
-451.0
-401.0
-345.0
-354.0
-411.0
-447.0
-427.0
-364.0
-282.0
-199.0
-146.0
-161.0
-256.0
-369.0
-422.0
-389.0
-327.0
-297.0
-313.0
-331.0
-315.0
-270.0
-233.0
-224.0
-239.0
-254.0
-255.0
-238.0
-209.0
-179.0
-167.0
-170.0
-196.0
-242.0
-296.0
-325.0
-296.0
-214.0
-133.0
-109.0
-143.0
-181.0
-182.0
-170.0
-191.0
-252.0
-308.0
-309.0
-269.0
-236.0
-231.0
-235.0
-232.0
-244.0
-288.0
-343.0
-354.0
-307.0
-242.0
-220.0
-245.0
-275.0
-287.0
-296.0
-319.0
-347.0
-351.0
-332.0
-312.0
-305.0
-287.0
-239.0
-184.0
-182.0
-250.0
-334.0
-356.0
-300.0
-222.0
-189.0
-208.0
-238.0
-247.0
-255.0
-282.0
-315.0
-312.0
-274.0
-236.0
-216.0
-188.0
-134.0
-94.0
-136.0
-248.0
-327.0
-300.0
-228.0
-223.0
-284.0
-293.0
-186.0
-66.0
-99.0
-281.0
-422.0
-370.0
-210.0
-146.0
-249.0
-374.0
-357.0
-217.0
-127.0
-194.0
-333.0
-390.0
-321.0
-217.0
-177.0
-201.0
-214.0
-180.0
-140.0
-150.0
-205.0
-250.0
-240.0
-188.0
-141.0
-127.0
-133.0
-144.0
-158.0
-183.0
-203.0
-200.0
-177.0
-172.0
-188.0
-192.0
-142.0
-64.0
-31.0
-90.0
-196.0
-250.0
-202.0
-105.0
-45.0
-61.0
-112.0
-137.0
-115.0
-92.0
-111.0
-172.0
-228.0
-245.0
-221.0
-179.0
-141.0
-108.0
-75.0
-65.0
-102.0
-176.0
-231.0
-219.0
-140.0
-59.0
-43.0
-93.0
-139.0
-126.0
-68.0
-33.0
-62.0
-130.0
-166.0
-129.0
-52.0
-3.0
-15.0
-70.0
-116.0
-125.0
-110.0
-103.0
-114.0
-111.0
-68.0
-10.0
2.0
-60.0
-147.0
-172.0
-121.0
-70.0
-99.0
-174.0
-190.0
-95.0
17.0
13.0
-134.0
-299.0
-346.0
-275.0
-197.0
-183.0
-211.0
-213.0
-180.0
-160.0
-176.0
-193.0
-179.0
-155.0
-169.0
-202.0
-187.0
-96.0
8.0
30.0
-53.0
-141.0
-129.0
-16.0
88.0
105.0
59.0
44.0
92.0
128.0
54.0
-117.0
-272.0
-309.0
-264.0
-234.0
-256.0
-266.0
-204.0
-109.0
-86.0
-170.0
-279.0
-310.0
-264.0
-226.0
-242.0
-264.0
-226.0
-142.0
-98.0
-141.0
-214.0
-231.0
-182.0
-143.0
-164.0
-206.0
-193.0
-113.0
-40.0
-56.0
-144.0
-202.0
-155.0
-40.0
47.0
47.0
-2.0
-26.0
-9.0
7.0
3.0
43.0
225.0
559.0
960.0
1351.0
1783.0
2369.0
3095.0
3718.0
3950.0
3726.0
3252.0
2735.0
2148.0
1294.0
122.0
-1114.0
-2052.0
-2544.0
-2705.0
-2698.0
-2522.0
-2113.0
-1512.0
-898.0
-429.0
-129.0
52.0
114.0
23.0
-194.0
-405.0
-490.0
-442.0
-343.0
-266.0
-225.0
-193.0
-165.0
-154.0
-168.0
-205.0
-256.0
-302.0
-306.0
-243.0
-129.0
-26.0
3.0
-50.0
-129.0
-169.0
-143.0
-91.0
-64.0
-82.0
-105.0
-86.0
-34.0
-17.0
-79.0
-188.0
-248.0
-206.0
-98.0
-8.0
27.0
34.0
45.0
37.0
-3.0
-45.0
-40.0
7.0
44.0
38.0
32.0
78.0
154.0
170.0
90.0
-2.0
-0.0
82.0
134.0
84.0
1.0
2.0
103.0
192.0
165.0
56.0
-2.0
62.0
194.0
290.0
300.0
258.0
228.0
235.0
260.0
277.0
276.0
261.0
257.0
291.0
363.0
434.0
456.0
416.0
344.0
292.0
297.0
352.0
417.0
460.0
479.0
502.0
548.0
598.0
612.0
583.0
549.0
562.0
614.0
659.0
664.0
657.0
690.0
759.0
794.0
756.0
686.0
679.0
769.0
895.0
963.0
947.0
897.0
872.0
868.0
850.0
802.0
749.0
718.0
714.0
728.0
762.0
805.0
824.0
777.0
683.0
600.0
579.0
591.0
570.0
492.0
401.0
345.0
314.0
246.0
118.0
-28.0
-132.0
-183.0
-225.0
-284.0
-347.0
-385.0
-411.0
-466.0
-567.0
-679.0
-751.0
-772.0
-775.0
-794.0
-830.0
-857.0
-865.0
-867.0
-886.0
-923.0
-960.0
-992.0
-1024.0
-1046.0
-1036.0
-993.0
-960.0
-990.0
-1088.0
-1182.0
-1190.0
-1103.0
-1005.0
-970.0
-987.0
-981.0
-910.0
-821.0
-807.0
-889.0
-994.0
-1020.0
-956.0
-876.0
-851.0
-874.0
-879.0
-830.0
-785.0
-809.0
-889.0
-936.0
-894.0
-800.0
-741.0
-741.0
-747.0
-711.0
-664.0
-669.0
-732.0
-782.0
-766.0
-703.0
-650.0
-621.0
-592.0
-561.0
-575.0
-657.0
-747.0
-759.0
-688.0
-626.0
-642.0
-693.0
-687.0
-606.0
-532.0
-542.0
-603.0
-628.0
-581.0
-516.0
-494.0
-509.0
-512.0
-486.0
-471.0
-510.0
-578.0
-613.0
-587.0
-543.0
-517.0
-507.0
-474.0
-417.0
-387.0
-433.0
-523.0
-580.0
-545.0
-456.0
-392.0
-402.0
-453.0
-482.0
-463.0
-439.0
-455.0
-513.0
-551.0
-526.0
-448.0
-387.0
-379.0
-400.0
-394.0
-368.0
-366.0
-417.0
-483.0
-505.0
-469.0
-412.0
-365.0
-325.0
-285.0
-285.0
-354.0
-455.0
-484.0
-399.0
-277.0
-239.0
-317.0
-423.0
-448.0
-393.0
-345.0
-368.0
-438.0
-488.0
-481.0
-426.0
-354.0
-289.0
-255.0
-282.0
-366.0
-450.0
-477.0
-436.0
-378.0
-349.0
-351.0
-338.0
-283.0
-211.0
-192.0
-242.0
-312.0
-331.0
-286.0
-231.0
-231.0
-280.0
-317.0
-306.0
-284.0
-299.0
-344.0
-358.0
-314.0
-250.0
-228.0
-243.0
-236.0
-192.0
-172.0
-235.0
-347.0
-399.0
-348.0
-259.0
-226.0
-261.0
-298.0
-272.0
-221.0
-223.0
-297.0
-375.0
-388.0
-327.0
-250.0
-207.0
-202.0
-208.0
-219.0
-251.0
-293.0
-303.0
-257.0
-191.0
-171.0
-210.0
-242.0
-208.0
-141.0
-138.0
-235.0
-351.0
-383.0
-326.0
-257.0
-245.0
-271.0
-276.0
-260.0
-277.0
-340.0
-398.0
-385.0
-311.0
-237.0
-206.0
-203.0
-196.0
-178.0
-176.0
-205.0
-254.0
-295.0
-318.0
-310.0
-269.0
-202.0
-146.0
-131.0
-172.0
-237.0
-278.0
-262.0
-206.0
-158.0
-153.0
-186.0
-221.0
-222.0
-203.0
-206.0
-247.0
-287.0
-285.0
-246.0
-218.0
-225.0
-234.0
-202.0
-151.0
-154.0
-236.0
-323.0
-314.0
-198.0
-80.0
-72.0
-163.0
-241.0
-230.0
-177.0
-179.0
-259.0
-333.0
-311.0
-209.0
-133.0
-147.0
-220.0
-275.0
-291.0
-291.0
-307.0
-328.0
-335.0
-321.0
-293.0
-240.0
-165.0
-118.0
-156.0
-264.0
-349.0
-336.0
-266.0
-243.0
-298.0
-343.0
-296.0
-195.0
-168.0
-253.0
-343.0
-312.0
-186.0
-96.0
-131.0
-221.0
-253.0
-202.0
-173.0
-243.0
-368.0
-432.0
-402.0
-338.0
-317.0
-331.0
-325.0
-280.0
-257.0
-313.0
-413.0
-452.0
-379.0
-261.0
-208.0
-254.0
-328.0
-332.0
-268.0
-231.0
-277.0
-350.0
-348.0
-242.0
-107.0
-33.0
-28.0
-38.0
-28.0
-33.0
-89.0
-178.0
-251.0
-282.0
-270.0
-236.0
-202.0
-204.0
-256.0
-331.0
-354.0
-292.0
-201.0
-183.0
-248.0
-306.0
-268.0
-168.0
-121.0
-191.0
-307.0
-352.0
-301.0
-232.0
-208.0
-219.0
-205.0
-166.0
-154.0
-199.0
-256.0
-263.0
-207.0
-149.0
-140.0
-158.0
-136.0
-47.0
54.0
82.0
18.0
-71.0
-94.0
-28.0
113.0
315.0
580.0
890.0
1228.0
1619.0
2134.0
2776.0
3378.0
3682.0
3561.0
3130.0
2579.0
1942.0
1084.0
-47.0
-1248.0
-2182.0
-2671.0
-2804.0
-2755.0
-2559.0
-2142.0
-1512.0
-854.0
-390.0
-182.0
-120.0
-90.0
-84.0
-161.0
-304.0
-420.0
-432.0
-370.0
-327.0
-330.0
-322.0
-251.0
-159.0
-146.0
-227.0
-302.0
-260.0
-131.0
-52.0
-114.0
-244.0
-300.0
-237.0
-153.0
-153.0
-227.0
-264.0
-192.0
-63.0
3.0
-38.0
-117.0
-138.0
-94.0
-56.0
-77.0
-121.0
-111.0
-33.0
19.0
-42.0
-175.0
-243.0
-168.0
-17.0
70.0
28.0
-68.0
-96.0
-30.0
46.0
48.0
-19.0
-78.0
-62.0
22.0
107.0
136.0
112.0
79.0
64.0
54.0
32.0
9.0
24.0
92.0
173.0
211.0
189.0
152.0
141.0
160.0
179.0
186.0
185.0
202.0
246.0
301.0
341.0
349.0
324.0
291.0
274.0
286.0
313.0
352.0
403.0
454.0
471.0
439.0
390.0
387.0
440.0
503.0
519.0
512.0
545.0
642.0
734.0
750.0
694.0
644.0
655.0
709.0
747.0
754.0
768.0
826.0
912.0
969.0
951.0
873.0
794.0
771.0
810.0
863.0
880.0
858.0
832.0
830.0
831.0
797.0
725.0
658.0
633.0
633.0
616.0
555.0
479.0
431.0
407.0
352.0
235.0
82.0
-33.0
-80.0
-90.0
-117.0
-176.0
-242.0
-301.0
-391.0
-528.0
-669.0
-736.0
-721.0
-698.0
-751.0
-854.0
-910.0
-867.0
-808.0
-832.0
-935.0
-1008.0
-979.0
-901.0
-886.0
-954.0
-1024.0
-1014.0
-965.0
-970.0
-1059.0
-1152.0
-1168.0
-1101.0
-1013.0
-958.0
-947.0
-966.0
-1011.0
-1061.0
-1081.0
-1048.0
-990.0
-957.0
-963.0
-965.0
-929.0
-868.0
-837.0
-870.0
-936.0
-971.0
-949.0
-891.0
-832.0
-786.0
-751.0
-722.0
-714.0
-746.0
-795.0
-815.0
-777.0
-703.0
-652.0
-661.0
-696.0
-693.0
-628.0
-566.0
-579.0
-669.0
-744.0
-716.0
-590.0
-467.0
-430.0
-477.0
-532.0
-548.0
-530.0
-527.0
-551.0
-578.0
-574.0
-540.0
-509.0
-515.0
-553.0
-595.0
-603.0
-574.0
-534.0
-512.0
-501.0
-469.0
-410.0
-369.0
-387.0
-459.0
-526.0
-547.0
-525.0
-505.0
-492.0
-464.0
-400.0
-329.0
-292.0
-307.0
-351.0
-393.0
-418.0
-431.0
-436.0
-428.0
-409.0
-388.0
-369.0
-357.0
-364.0
-392.0
-434.0
-460.0
-442.0
-379.0
-319.0
-307.0
-346.0
-388.0
-406.0
-407.0
-418.0
-432.0
-417.0
-363.0
-310.0
-300.0
-321.0
-321.0
-290.0
-275.0
-318.0
-387.0
-411.0
-355.0
-280.0
-251.0
-272.0
-294.0
-302.0
-327.0
-389.0
-447.0
-449.0
-387.0
-316.0
-284.0
-290.0
-304.0
-317.0
-335.0
-352.0
-341.0
-309.0
-284.0
-294.0
-316.0
-312.0
-277.0
-257.0
-285.0
-338.0
-356.0
-319.0
-264.0
-236.0
-237.0
-247.0
-251.0
-272.0
-318.0
-374.0
-405.0
-403.0
-382.0
-345.0
-294.0
-246.0
-239.0
-285.0
-351.0
-374.0
-332.0
-275.0
-272.0
-319.0
-347.0
-301.0
-210.0
-155.0
-191.0
-278.0
-341.0
-343.0
-314.0
-282.0
-251.0
-211.0
-183.0
-199.0
-265.0
-329.0
-342.0
-305.0
-268.0
-261.0
-265.0
-245.0
-208.0
-190.0
-216.0
-253.0
-263.0
-244.0
-234.0
-244.0
-249.0
-212.0
-146.0
-105.0
-143.0
-238.0
-312.0
-309.0
-249.0
-195.0
-183.0
-182.0
-161.0
-130.0
-149.0
-232.0
-311.0
-310.0
-235.0
-173.0
-174.0
-194.0
-163.0
-86.0
-55.0
-134.0
-261.0
-314.0
-257.0
-181.0
-186.0
-254.0
-282.0
-218.0
-135.0
-141.0
-234.0
-302.0
-265.0
-174.0
-120.0
-125.0
-125.0
-79.0
-42.0
-99.0
-230.0
-329.0
-315.0
-243.0
-222.0
-278.0
-327.0
-301.0
-221.0
-185.0
-229.0
-293.0
-295.0
-235.0
-181.0
-189.0
-234.0
-253.0
-217.0
-169.0
-163.0
-204.0
-238.0
-210.0
-109.0
16.0
110.0
140.0
116.0
50.0
-34.0
-101.0
-125.0
-123.0
-145.0
-207.0
-266.0
-264.0
-203.0
-161.0
-202.0
-286.0
-320.0
-275.0
-212.0
-198.0
-218.0
-209.0
-167.0
-160.0
-240.0
-358.0
-408.0
-353.0
-260.0
-210.0
-214.0
-221.0
-192.0
-142.0
-113.0
-114.0
-126.0
-137.0
-154.0
-165.0
-132.0
-37.0
65.0
90.0
18.0
-65.0
-56.0
55.0
179.0
292.0
469.0
799.0
1244.0
1687.0
2091.0
2564.0
3156.0
3684.0
3843.0
3517.0
2883.0
2186.0
1433.0
457.0
-764.0
-1943.0
-2719.0
-2986.0
-2937.0
-2761.0
-2439.0
-1877.0
-1153.0
-527.0
-193.0
-106.0
-82.0
-28.0
-18.0
-138.0
-337.0
-475.0
-474.0
-386.0
-308.0
-276.0
-266.0
-246.0
-218.0
-206.0
-206.0
-201.0
-183.0
-156.0
-134.0
-134.0
-154.0
-181.0
-194.0
-177.0
-134.0
-98.0
-93.0
-108.0
-112.0
-99.0
-80.0
-79.0
-93.0
-105.0
-91.0
-58.0
-20.0
5.0
6.0
-20.0
-56.0
-75.0
-62.0
-32.0
-5.0
9.0
36.0
87.0
142.0
147.0
91.0
17.0
-8.0
35.0
108.0
165.0
194.0
207.0
221.0
231.0
231.0
212.0
175.0
140.0
146.0
207.0
271.0
269.0
216.0
200.0
280.0
386.0
403.0
315.0
247.0
303.0
425.0
477.0
429.0
384.0
420.0
470.0
428.0
322.0
296.0
417.0
573.0
607.0
511.0
428.0
462.0
577.0
654.0
654.0
632.0
662.0
741.0
815.0
847.0
844.0
831.0
835.0
846.0
848.0
828.0
819.0
862.0
958.0
1029.0
1001.0
879.0
768.0
768.0
871.0
966.0
977.0
937.0
944.0
1021.0
1079.0
1019.0
864.0
738.0
725.0
758.0
719.0
598.0
510.0
541.0
611.0
543.0
295.0
28.0
-67.0
-4.0
33.0
-79.0
-257.0
-334.0
-281.0
-236.0
-330.0
-514.0
-632.0
-629.0
-606.0
-667.0
-789.0
-865.0
-855.0
-840.0
-904.0
-1009.0
-1053.0
-996.0
-916.0
-889.0
-905.0
-894.0
-841.0
-814.0
-866.0
-954.0
-996.0
-971.0
-938.0
-935.0
-942.0
-916.0
-872.0
-861.0
-911.0
-977.0
-1004.0
-977.0
-926.0
-871.0
-822.0
-782.0
-769.0
-776.0
-789.0
-789.0
-784.0
-791.0
-806.0
-812.0
-791.0
-735.0
-658.0
-591.0
-579.0
-641.0
-733.0
-770.0
-716.0
-621.0
-566.0
-568.0
-583.0
-567.0
-549.0
-565.0
-598.0
-595.0
-552.0
-531.0
-555.0
-570.0
-514.0
-428.0
-417.0
-512.0
-609.0
-596.0
-493.0
-427.0
-461.0
-514.0
-472.0
-353.0
-288.0
-371.0
-527.0
-606.0
-550.0
-444.0
-399.0
-437.0
-481.0
-470.0
-424.0
-417.0
-470.0
-535.0
-544.0
-494.0
-429.0
-397.0
-398.0
-402.0
-392.0
-391.0
-414.0
-447.0
-444.0
-391.0
-321.0
-283.0
-278.0
-267.0
-224.0
-194.0
-232.0
-327.0
-396.0
-380.0
-307.0
-260.0
-275.0
-307.0
-301.0
-271.0
-276.0
-330.0
-375.0
-363.0
-313.0
-281.0
-284.0
-289.0
-271.0
-259.0
-294.0
-364.0
-407.0
-376.0
-301.0
-246.0
-237.0
-236.0
-195.0
-127.0
-110.0
-179.0
-282.0
-323.0
-276.0
-216.0
-228.0
-301.0
-342.0
-307.0
-261.0
-286.0
-365.0
-394.0
-322.0
-210.0
-163.0
-193.0
-232.0
-223.0
-202.0
-226.0
-289.0
-334.0
-328.0
-282.0
-220.0
-150.0
-87.0
-67.0
-126.0
-230.0
-305.0
-305.0
-265.0
-248.0
-277.0
-306.0
-286.0
-219.0
-162.0
-171.0
-223.0
-239.0
-174.0
-72.0
-30.0
-89.0
-183.0
-212.0
-171.0
-153.0
-224.0
-331.0
-364.0
-289.0
-192.0
-164.0
-195.0
-211.0
-192.0
-202.0
-286.0
-386.0
-399.0
-299.0
-176.0
-130.0
-170.0
-220.0
-217.0
-183.0
-158.0
-166.0
-187.0
-195.0
-158.0
-70.0
44.0
120.0
105.0
22.0
-38.0
-19.0
37.0
32.0
-58.0
-149.0
-153.0
-95.0
-71.0
-131.0
-208.0
-224.0
-186.0
-174.0
-215.0
-241.0
-184.0
-76.0
-24.0
-89.0
-211.0
-279.0
-243.0
-160.0
-111.0
-120.0
-139.0
-133.0
-104.0
-98.0
-133.0
-178.0
-185.0
-147.0
-99.0
-68.0
-45.0
-6.0
49.0
85.0
81.0
66.0
76.0
106.0
115.0
97.0
135.0
329.0
675.0
1052.0
1363.0
1688.0
2211.0
2976.0
3724.0
4094.0
3947.0
3475.0
2919.0
2268.0
1308.0
-15.0
-1394.0
-2391.0
-2837.0
-2912.0
-2861.0
-2698.0
-2283.0
-1602.0
-880.0
-372.0
-134.0
-32.0
41.0
58.0
-51.0
-245.0
-404.0
-445.0
-409.0
-369.0
-338.0
-271.0
-161.0
-57.0
-14.0
-28.0
-48.0
-45.0
-49.0
-85.0
-127.0
-126.0
-82.0
-44.0
-42.0
-45.0
-11.0
45.0
48.0
-31.0
-123.0
-131.0
-45.0
48.0
66.0
12.0
-37.0
-22.0
35.0
65.0
44.0
5.0
-7.0
20.0
56.0
74.0
78.0
97.0
123.0
112.0
47.0
-25.0
-21.0
60.0
148.0
173.0
150.0
137.0
143.0
112.0
32.0
-27.0
13.0
109.0
156.0
121.0
98.0
172.0
291.0
323.0
233.0
128.0
134.0
235.0
327.0
342.0
320.0
322.0
350.0
349.0
296.0
235.0
230.0
293.0
380.0
432.0
425.0
393.0
402.0
462.0
528.0
537.0
487.0
454.0
503.0
620.0
731.0
784.0
801.0
821.0
840.0
824.0
779.0
759.0
799.0
874.0
918.0
903.0
870.0
868.0
897.0
921.0
924.0
929.0
962.0
1017.0
1059.0
1058.0
1023.0
985.0
946.0
886.0
793.0
689.0
617.0
609.0
643.0
661.0
606.0
488.0
362.0
282.0
236.0
172.0
43.0
-117.0
-232.0
-261.0
-251.0
-284.0
-401.0
-555.0
-667.0
-700.0
-687.0
-679.0
-697.0
-721.0
-738.0
-758.0
-808.0
-885.0
-954.0
-975.0
-953.0
-931.0
-940.0
-957.0
-940.0
-886.0
-855.0
-903.0
-999.0
-1050.0
-1008.0
-922.0
-876.0
-884.0
-886.0
-837.0
-778.0
-782.0
-850.0
