-521.0
-510.0
-353.0
-219.0
-266.0
-450.0
-579.0
-568.0
-506.0
-532.0
-627.0
-668.0
-609.0
-535.0
-523.0
-560.0
-583.0
-579.0
-586.0
-610.0
-596.0
-520.0
-435.0
-411.0
-457.0
-523.0
-573.0
-612.0
-646.0
-652.0
-596.0
-500.0
-420.0
-391.0
-396.0
-402.0
-403.0
-438.0
-532.0
-641.0
-666.0
-536.0
-282.0
-25.0
151.0
278.0
482.0
834.0
1245.0
1551.0
1659.0
1624.0
1567.0
1535.0
1437.0
1137.0
574.0
-168.0
-904.0
-1457.0
-1773.0
-1910.0
-1989.0
-2068.0
-2104.0
-2008.0
-1747.0
-1384.0
-1051.0
-839.0
-743.0
-679.0
-590.0
-493.0
-463.0
-517.0
-609.0
-673.0
-702.0
-731.0
-748.0
-686.0
-520.0
-338.0
-277.0
-359.0
-479.0
-525.0
-506.0
-508.0
-562.0
-591.0
-526.0
-415.0
-367.0
-419.0
-500.0
-516.0
-465.0
-414.0
-409.0
-416.0
-368.0
-263.0
-180.0
-182.0
-248.0
-300.0
-288.0
-250.0
-254.0
-297.0
-307.0
-242.0
-158.0
-158.0
-244.0
-322.0
-320.0
-287.0
-313.0
-390.0
-394.0
-259.0
-82.0
-32.0
-141.0
-274.0
-292.0
-217.0
-178.0
-233.0
-295.0
-258.0
-142.0
-68.0
-105.0
-186.0
-190.0
-101.0
-6.0
7.0
-33.0
-13.0
122.0
288.0
352.0
275.0
154.0
109.0
160.0
221.0
238.0
235.0
289.0
413.0
524.0
528.0
435.0
333.0
306.0
347.0
403.0
433.0
436.0
436.0
441.0
435.0
398.0
341.0
307.0
322.0
365.0
395.0
396.0
387.0
380.0
350.0
260.0
137.0
56.0
67.0
124.0
143.0
96.0
27.0
-31.0
-105.0
-226.0
-368.0
-462.0
-504.0
-547.0
-602.0
-606.0
-520.0
-416.0
-418.0
-562.0
-744.0
-851.0
-872.0
-880.0
-906.0
-910.0
-862.0
-810.0
-826.0
-904.0
-953.0
-909.0
-799.0
-715.0
-709.0
-761.0
-815.0
-837.0
-834.0
-834.0
-848.0
-873.0
-902.0
-946.0
-987.0
-978.0
-887.0
-749.0
-663.0
-706.0
-843.0
-960.0
-972.0
-902.0
-830.0
-795.0
-768.0
-727.0
-700.0
-728.0
-795.0
-830.0
-798.0
-733.0
-695.0
-684.0
-660.0
-603.0
-553.0
-554.0
-593.0
-620.0
-619.0
-630.0
-676.0
-713.0
-657.0
-492.0
-319.0
-267.0
-364.0
-522.0
-633.0
-650.0
-607.0
-553.0
-522.0
-529.0
-574.0
-618.0
-611.0
-534.0
-445.0
-432.0
-518.0
-612.0
-610.0
-506.0
-408.0
-417.0
-516.0
-583.0
-548.0
-463.0
-440.0
-497.0
-539.0
-476.0
-358.0
-324.0
-434.0
-602.0
-687.0
-647.0
-570.0
-543.0
-541.0
-496.0
-407.0
-363.0
-435.0
-572.0
-644.0
-586.0
-474.0
-424.0
-469.0
-531.0
-518.0
-435.0
-365.0
-379.0
-477.0
-599.0
-666.0
-654.0
-582.0
-494.0
-435.0
-419.0
-430.0
-446.0
-463.0
-495.0
-539.0
-555.0
-501.0
-404.0
-343.0
-379.0
-483.0
-572.0
-585.0
-546.0
-510.0
-494.0
-461.0
-395.0
-324.0
-308.0
-348.0
-404.0
-423.0
-408.0
-404.0
-450.0
-508.0
-501.0
-380.0
-205.0
-107.0
-184.0
-377.0
-511.0
-455.0
-253.0
-73.0
-32.0
-79.0
-71.0
47.0
161.0
134.0
-24.0
-162.0
-176.0
-120.0
-106.0
-158.0
-192.0
-156.0
-123.0
-192.0
-350.0
-481.0
-508.0
-475.0
-465.0
-491.0
-509.0
-508.0
-518.0
-551.0
-569.0
-559.0
-566.0
-640.0
-715.0
-678.0
-514.0
-369.0
-384.0
-534.0
-650.0
-640.0
-569.0
-554.0
-604.0
-645.0
-629.0
-602.0
-620.0
-667.0
-669.0
-617.0
-548.0
-510.0
-493.0
-464.0
-411.0
-372.0
-375.0
-422.0
-470.0
-460.0
-343.0
-130.0
142.0
445.0
807.0
1245.0
1681.0
1950.0
1946.0
1745.0
1550.0
1471.0
1393.0
1087.0
469.0
-306.0
-970.0
-1379.0
-1595.0
-1769.0
-1984.0
-2185.0
-2225.0
-1999.0
-1559.0
-1104.0
-830.0
-782.0
-824.0
-783.0
-637.0
-523.0
-559.0
-698.0
-789.0
-738.0
-625.0
-583.0
-644.0
-716.0
-717.0
-656.0
-597.0
-558.0
-519.0
-470.0
-447.0
-476.0
-543.0
-597.0
-612.0
-587.0
-539.0
-478.0
-434.0
-431.0
-463.0
-469.0
-431.0
-393.0
-427.0
-527.0
-609.0
-590.0
-484.0
-374.0
-336.0
-356.0
-382.0
-380.0
-376.0
-400.0
-452.0
-481.0
-433.0
-322.0
-223.0
-196.0
-250.0
-337.0
-402.0
-408.0
-355.0
-265.0
-191.0
-184.0
-237.0
-269.0
-216.0
-118.0
-92.0
-193.0
-335.0
-374.0
-263.0
-89.0
21.0
17.0
-45.0
-72.0
-7.0
117.0
206.0
179.0
72.0
7.0
65.0
184.0
223.0
122.0
-15.0
-58.0
14.0
120.0
199.0
283.0
412.0
531.0
545.0
444.0
336.0
316.0
375.0
417.0
389.0
333.0
324.0
365.0
394.0
357.0
279.0
225.0
223.0
228.0
202.0
159.0
151.0
189.0
231.0
215.0
133.0
17.0
-90.0
-155.0
-163.0
-127.0
-93.0
-135.0
-277.0
-445.0
-536.0
-535.0
-535.0
-623.0
-752.0
-787.0
-671.0
-514.0
-478.0
-593.0
-752.0
-833.0
-839.0
-841.0
-877.0
-906.0
-899.0
-877.0
-873.0
-882.0
-873.0
-856.0
-884.0
-972.0
-1055.0
-1031.0
-891.0
-741.0
-710.0
-798.0
-884.0
-854.0
-736.0
-669.0
-737.0
-854.0
-875.0
-762.0
-636.0
-636.0
-757.0
-861.0
-854.0
-779.0
-749.0
-781.0
-807.0
-765.0
-686.0
-654.0
-716.0
-825.0
-902.0
-881.0
-768.0
-629.0
-549.0
-561.0
-602.0
-582.0
-503.0
-470.0
-567.0
-745.0
-852.0
-806.0
-668.0
-570.0
-566.0
-598.0
-589.0
-536.0
-502.0
-530.0
-583.0
-601.0
-552.0
-475.0
-430.0
-454.0
-531.0
-617.0
-665.0
-665.0
-636.0
-620.0
-629.0
-624.0
-557.0
-454.0
-399.0
-467.0
-621.0
-729.0
-690.0
-548.0
-439.0
-441.0
-488.0
-472.0
-372.0
-295.0
-336.0
-477.0
-591.0
-590.0
-498.0
-419.0
-418.0
-477.0
-517.0
-498.0
-459.0
-467.0
-534.0
-612.0
-625.0
-559.0
-471.0
-426.0
-431.0
-458.0
-488.0
-529.0
-580.0
-605.0
-573.0
-503.0
-446.0
-422.0
-404.0
-371.0
-359.0
-405.0
-490.0
-541.0
-519.0
-474.0
-480.0
-530.0
-545.0
-492.0
-434.0
-457.0
-539.0
-560.0
-457.0
-299.0
-212.0
-227.0
-273.0
-290.0
-299.0
-349.0
-432.0
-475.0
-442.0
-374.0
-326.0
-285.0
-206.0
-90.0
-15.0
-33.0
-113.0
-170.0
-137.0
-21.0
107.0
174.0
146.0
54.0
-29.0
-42.0
-17.0
-53.0
-202.0
-385.0
-467.0
-418.0
-359.0
-412.0
-560.0
-663.0
-646.0
-582.0
-578.0
-622.0
-600.0
-460.0
-303.0
-271.0
-383.0
-520.0
-569.0
-541.0
-525.0
-555.0
-590.0
-589.0
-564.0
-562.0
-595.0
-641.0
-673.0
-679.0
-655.0
-600.0
-527.0
-462.0
-416.0
-381.0
-352.0
-363.0
-427.0
-517.0
-569.0
-552.0
-472.0
-344.0
-148.0
113.0
390.0
627.0
870.0
1206.0
1615.0
1925.0
1984.0
1832.0
1668.0
1582.0
1416.0
946.0
172.0
-628.0
-1168.0
-1429.0
-1581.0
-1763.0
-1938.0
-1993.0
-1885.0
-1669.0
-1414.0
-1160.0
-942.0
-804.0
-749.0
-713.0
-642.0
-554.0
-516.0
-580.0
-714.0
-843.0
-906.0
-887.0
-799.0
-671.0
-547.0
-475.0
-467.0
-484.0
-496.0
-507.0
-536.0
-577.0
-593.0
-552.0
-471.0
-403.0
-382.0
-397.0
-435.0
-493.0
-553.0
-571.0
-515.0
-404.0
-315.0
-298.0
-331.0
-356.0
-358.0
-373.0
-436.0
-506.0
-522.0
-463.0
-367.0
-298.0
-280.0
-286.0
-292.0
-302.0
-340.0
-394.0
-423.0
-375.0
-266.0
-165.0
-142.0
-196.0
-262.0
-273.0
-236.0
-211.0
-240.0
-284.0
-284.0
-212.0
-118.0
-68.0
-85.0
-145.0
-201.0
-214.0
-173.0
-92.0
-12.0
33.0
45.0
62.0
103.0
147.0
152.0
99.0
35.0
27.0
101.0
212.0
287.0
286.0
232.0
194.0
206.0
249.0
276.0
277.0
291.0
341.0
412.0
454.0
444.0
403.0
371.0
352.0
322.0
271.0
234.0
246.0
306.0
351.0
333.0
248.0
157.0
118.0
140.0
179.0
183.0
138.0
68.0
-0.0
-57.0
-131.0
-242.0
-379.0
-498.0
-559.0
-546.0
-493.0
-452.0
-447.0
-467.0
-493.0
-543.0
-643.0
-775.0
-866.0
-848.0
-743.0
-659.0
-678.0
-773.0
-842.0
-827.0
-768.0
-748.0
-806.0
-892.0
-925.0
-867.0
-773.0
-734.0
-788.0
-897.0
-955.0
-915.0
-825.0
-784.0
-818.0
-845.0
-784.0
-665.0
-603.0
-672.0
-812.0
-901.0
-873.0
-786.0
-719.0
-688.0
-653.0
-603.0
-572.0
-600.0
-671.0
-740.0
-772.0
-783.0
-779.0
-761.0
-729.0
-706.0
-714.0
-743.0
-739.0
-681.0
-612.0
-590.0
-608.0
-592.0
-495.0
-396.0
-403.0
-537.0
-689.0
-749.0
-721.0
-697.0
-715.0
-720.0
-652.0
-553.0
-515.0
-564.0
-626.0
-620.0
-555.0
-501.0
-501.0
-506.0
-462.0
-389.0
-357.0
-411.0
-522.0
-618.0
-648.0
-613.0
-550.0
-497.0
-455.0
-402.0
-337.0
-301.0
-344.0
-456.0
-561.0
-582.0
-529.0
-483.0
-493.0
-514.0
-481.0
-407.0
-373.0
-421.0
-502.0
-536.0
-513.0
-483.0
-486.0
-497.0
-488.0
-476.0
-502.0
-541.0
-537.0
-476.0
-420.0
-428.0
-481.0
-473.0
-376.0
-282.0
-318.0
-496.0
-676.0
-720.0
-629.0
-529.0
-510.0
-533.0
-495.0
-379.0
-285.0
-298.0
-372.0
-381.0
-299.0
-226.0
-254.0
-331.0
-339.0
-253.0
-184.0
-231.0
-345.0
-400.0
-353.0
-268.0
-203.0
-135.0
-32.0
57.0
55.0
-39.0
-123.0
-122.0
-76.0
-64.0
-91.0
-104.0
-81.0
-77.0
-148.0
-274.0
-380.0
-440.0
-487.0
-547.0
-582.0
-557.0
-481.0
-426.0
-432.0
-486.0
-548.0
-597.0
-627.0
-623.0
-567.0
-486.0
-431.0
-427.0
-439.0
-444.0
-447.0
-477.0
-526.0
-543.0
-503.0
-449.0
-441.0
-479.0
-502.0
-477.0
-448.0
-481.0
-563.0
-611.0
-557.0
-421.0
-293.0
-256.0
-319.0
-418.0
-470.0
-436.0
-323.0
-174.0
-2.0
204.0
472.0
811.0
1189.0
1545.0
1788.0
1855.0
1750.0
1574.0
1419.0
1253.0
921.0
323.0
-442.0
-1124.0
-1563.0
-1806.0
-2000.0
-2181.0
-2247.0
-2089.0
-1739.0
-1331.0
-985.0
-739.0
-595.0
-552.0
-577.0
-606.0
-588.0
-534.0
-506.0
-529.0
-566.0
-574.0
-561.0
-556.0
-557.0
-538.0
-506.0
-491.0
-509.0
-519.0
-480.0
-400.0
-351.0
-381.0
-448.0
-464.0
-404.0
-326.0
-293.0
-300.0
-299.0
-282.0
-286.0
-346.0
-429.0
-475.0
-469.0
-442.0
-414.0
-365.0
-273.0
-183.0
-161.0
-227.0
-315.0
-344.0
-315.0
-285.0
-292.0
-306.0
-283.0
-241.0
-231.0
-264.0
-283.0
-244.0
-183.0
-181.0
-239.0
-270.0
-197.0
-74.0
-24.0
-107.0
-233.0
-273.0
-194.0
-82.0
-19.0
-13.0
3.0
56.0
99.0
77.0
5.0
-52.0
-29.0
65.0
174.0
244.0
288.0
335.0
395.0
424.0
384.0
302.0
243.0
248.0
298.0
339.0
367.0
400.0
446.0
468.0
436.0
375.0
349.0
382.0
446.0
488.0
496.0
491.0
488.0
475.0
424.0
330.0
224.0
160.0
161.0
203.0
234.0
225.0
204.0
203.0
203.0
144.0
9.0
-133.0
-198.0
-181.0
-169.0
-234.0
-349.0
-423.0
-430.0
-437.0
-510.0
-628.0
-696.0
-668.0
-603.0
-598.0
-693.0
-833.0
-940.0
-972.0
-959.0
-943.0
-947.0
-953.0
-929.0
-864.0
-802.0
-792.0
-856.0
-948.0
-1006.0
-1010.0
-1001.0
-999.0
-980.0
-895.0
-770.0
-693.0
-740.0
-864.0
-949.0
-934.0
-862.0
-821.0
-845.0
-884.0
-879.0
-830.0
-793.0
-809.0
-866.0
-917.0
-933.0
-907.0
-843.0
-750.0
-662.0
-632.0
-690.0
-800.0
-867.0
-829.0
-718.0
-634.0
-633.0
-667.0
-648.0
-555.0
-455.0
-428.0
-487.0
-581.0
-662.0
-712.0
-716.0
-663.0
-568.0
-497.0
-501.0
-576.0
-649.0
-659.0
-596.0
-510.0
-427.0
-363.0
-332.0
-344.0
-384.0
-419.0
-425.0
-424.0
-461.0
-546.0
-598.0
-547.0
-404.0
-286.0
-286.0
-390.0
-477.0
-464.0
-397.0
-390.0
-475.0
-575.0
-583.0
-500.0
-427.0
-458.0
-576.0
-671.0
-658.0
-556.0
-455.0
-416.0
-420.0
-409.0
-371.0
-358.0
-432.0
-565.0
-654.0
-625.0
-518.0
-436.0
-431.0
-455.0
-429.0
-340.0
-256.0
-253.0
-337.0
-438.0
-472.0
-405.0
-279.0
-196.0
-235.0
-359.0
-455.0
-445.0
-382.0
-375.0
-443.0
-474.0
-373.0
-191.0
-81.0
-111.0
-196.0
-215.0
-174.0
-165.0
-231.0
-284.0
-243.0
-153.0
-148.0
-267.0
-402.0
-421.0
-346.0
-327.0
-450.0
-613.0
-651.0
-529.0
-389.0
-384.0
-522.0
-661.0
-689.0
-624.0
-566.0
-565.0
-594.0
-603.0
-604.0
-616.0
-641.0
-651.0
-638.0
-636.0
-661.0
-683.0
-638.0
-522.0
-413.0
-404.0
-511.0
-649.0
-710.0
-676.0
-614.0
-594.0
-605.0
-581.0
-502.0
-422.0
-398.0
-435.0
-497.0
-560.0
-617.0
-649.0
-584.0
-372.0
-62.0
230.0
452.0
665.0
965.0
1326.0
1596.0
1670.0
1617.0
1590.0
1613.0
1496.0
1042.0
282.0
-508.0
-1082.0
-1430.0
-1721.0
-2039.0
-2285.0
-2310.0
-2104.0
-1795.0
-1505.0
-1255.0
-1026.0
-841.0
-744.0
-715.0
-678.0
-591.0
-511.0
-530.0
-667.0
-827.0
-893.0
-832.0
-700.0
-583.0
-521.0
-487.0
-438.0
-365.0
-326.0
-387.0
-527.0
-642.0
-629.0
-495.0
-369.0
-350.0
-413.0
-449.0
-408.0
-361.0
-395.0
-488.0
-525.0
-457.0
-356.0
-325.0
-364.0
-391.0
-353.0
-314.0
-356.0
-463.0
-527.0
-481.0
-364.0
-280.0
-269.0
-299.0
-311.0
-302.0
-304.0
-333.0
-365.0
-354.0
-284.0
-193.0
-123.0
-118.0
-161.0
-207.0
-234.0
-248.0
-262.0
-266.0
-238.0
-183.0
-126.0
-92.0
-78.0
-71.0
-79.0
-105.0
-127.0
-109.0
-37.0
57.0
130.0
179.0
230.0
281.0
299.0
267.0
214.0
193.0
224.0
277.0
312.0
322.0
315.0
295.0
265.0
264.0
329.0
425.0
472.0
442.0
407.0
473.0
622.0
707.0
608.0
393.0
225.0
198.0
249.0
273.0
246.0
242.0
285.0
307.0
235.0
99.0
5.0
11.0
46.0
5.0
-123.0
-241.0
-282.0
-271.0
-306.0
-421.0
-554.0
-626.0
-648.0
-673.0
-714.0
-707.0
-616.0
-515.0
-522.0
-662.0
-826.0
-883.0
-827.0
-754.0
-740.0
-773.0
-798.0
-805.0
-832.0
-893.0
-941.0
-925.0
-871.0
-850.0
-883.0
-923.0
-901.0
-827.0
-793.0
-862.0
-981.0
-1047.0
-1012.0
-941.0
-899.0
-881.0
-837.0
-769.0
-742.0
-785.0
-849.0
-875.0
-860.0
-846.0
-826.0
-766.0
-675.0
-641.0
-708.0
-809.0
-844.0
-805.0
-778.0
-825.0
-869.0
-815.0
-676.0
-573.0
-592.0
-687.0
-745.0
-733.0
-696.0
-684.0
-676.0
-631.0
-550.0
-487.0
-474.0
-495.0
-512.0
-541.0
-605.0
-688.0
-720.0
-651.0
-528.0
-458.0
-497.0
-587.0
-615.0
-549.0
-460.0
-438.0
-487.0
-538.0
-535.0
-485.0
-437.0
-432.0
-483.0
-579.0
-682.0
-727.0
-667.0
-524.0
-392.0
-360.0
-420.0
-492.0
-514.0
-498.0
-500.0
-543.0
-592.0
-587.0
-516.0
-429.0
-378.0
-385.0
-434.0
-493.0
-542.0
-569.0
-579.0
-580.0
-577.0
-569.0
-541.0
-491.0
-457.0
-468.0
-517.0
-555.0
-545.0
-492.0
-432.0
-393.0
-373.0
-364.0
-380.0
-431.0
-500.0
-536.0
-509.0
-423.0
-313.0
-220.0
-189.0
-235.0
-323.0
-373.0
-347.0
-306.0
-332.0
-432.0
-505.0
-463.0
-337.0
-239.0
-234.0
-272.0
-268.0
-215.0
-164.0
-137.0
-114.0
-81.0
-70.0
-112.0
-183.0
-236.0
-259.0
-285.0
-322.0
-346.0
-322.0
-273.0
-261.0
-316.0
-417.0
-521.0
-600.0
-654.0
-676.0
-669.0
-636.0
-597.0
-553.0
-504.0
-460.0
-466.0
-536.0
-640.0
-710.0
-707.0
-655.0
-611.0
-590.0
-571.0
-533.0
-494.0
-492.0
-539.0
-601.0
-636.0
-618.0
-568.0
-517.0
-487.0
-472.0
-459.0
-441.0
-441.0
-480.0
-544.0
-570.0
-518.0
-423.0
-370.0
-386.0
-403.0
-315.0
-99.0
174.0
444.0
747.0
1160.0
1646.0
2018.0
2105.0
1930.0
1680.0
1512.0
1373.0
1058.0
449.0
-308.0
-936.0
-1276.0
-1416.0
-1569.0
-1839.0
-2106.0
-2179.0
-1993.0
-1646.0
-1286.0
-993.0
-772.0
-626.0
-569.0
-593.0
-651.0
-690.0
-698.0
-711.0
-753.0
-807.0
-830.0
-797.0
-713.0
-618.0
-565.0
-583.0
-639.0
-670.0
-630.0
-537.0
-457.0
-441.0
-475.0
-511.0
-517.0
-516.0
-535.0
-566.0
-567.0
-522.0
-451.0
-408.0
-421.0
-462.0
-496.0
-506.0
-504.0
-501.0
-481.0
-429.0
-357.0
-304.0
-294.0
-309.0
-321.0
-328.0
-369.0
-453.0
-518.0
-479.0
-329.0
-177.0
-153.0
-270.0
-406.0
-425.0
-329.0
-234.0
-242.0
-310.0
-324.0
-234.0
-128.0
-120.0
-220.0
-317.0
-319.0
-250.0
-204.0
-206.0
-188.0
-85.0
56.0
136.0
110.0
40.0
4.0
8.0
14.0
33.0
115.0
254.0
355.0
346.0
272.0
252.0
312.0
353.0
291.0
189.0
182.0
297.0
397.0
362.0
250.0
217.0
309.0
409.0
401.0
322.0
303.0
389.0
485.0
473.0
352.0
214.0
128.0
87.0
49.0
9.0
4.0
53.0
121.0
137.0
54.0
-96.0
-219.0
-250.0
-210.0
-195.0
-263.0
-373.0
-426.0
-395.0
-349.0
-386.0
-523.0
-690.0
-794.0
-795.0
-732.0
-683.0
-701.0
-778.0
-840.0
-830.0
-766.0
-741.0
-816.0
-940.0
-978.0
-876.0
-725.0
-673.0
-776.0
-947.0
-1039.0
-1007.0
-922.0
-882.0
-900.0
-917.0
-871.0
-783.0
-716.0
-699.0
-700.0
-689.0
-689.0
-750.0
-850.0
-894.0
-821.0
-698.0
-659.0
-753.0
-890.0
-932.0
-852.0
-739.0
-683.0
-672.0
-646.0
-595.0
-564.0
-591.0
-657.0
-717.0
-745.0
-748.0
-738.0
-697.0
-621.0
-551.0
-533.0
-568.0
-622.0
-673.0
-742.0
-836.0
-892.0
-807.0
-584.0
-367.0
-327.0
-457.0
-575.0
-523.0
-374.0
-341.0
-531.0
-785.0
-855.0
-692.0
-504.0
-506.0
-691.0
-839.0
-790.0
-603.0
-466.0
-472.0
-535.0
-513.0
-388.0
-279.0
-308.0
-460.0
-599.0
-615.0
-530.0
-459.0
-474.0
-537.0
-558.0
-511.0
-463.0
-473.0
-529.0
-570.0
-564.0
-521.0
-464.0
-415.0
-402.0
-451.0
-536.0
-583.0
-540.0
-469.0
-462.0
-525.0
-548.0
-449.0
-303.0
-273.0
-401.0
-566.0
-629.0
-601.0
-599.0
-663.0
-694.0
-596.0
-423.0
-339.0
-400.0
-516.0
-557.0
-521.0
-503.0
-559.0
-608.0
-548.0
-386.0
-253.0
-250.0
-351.0
-439.0
-445.0
-400.0
-389.0
-430.0
-466.0
-435.0
-358.0
-303.0
-325.0
-400.0
-459.0
-463.0
-434.0
-403.0
-372.0
-311.0
-219.0
-144.0
-128.0
-154.0
-162.0
-122.0
-63.0
-36.0
-47.0
-56.0
-52.0
-71.0
-138.0
-239.0
-340.0
-426.0
-505.0
-553.0
-530.0
-451.0
-398.0
-434.0
-519.0
-566.0
-546.0
-521.0
-539.0
-565.0
-537.0
-476.0
-453.0
-500.0
-571.0
-618.0
-644.0
-678.0
-703.0
-684.0
-620.0
-546.0
-470.0
-385.0
-324.0
-370.0
-535.0
-710.0
-755.0
-666.0
-565.0
-548.0
-566.0
-522.0
-413.0
-341.0
-370.0
-446.0
-486.0
-480.0
-468.0
-458.0
-384.0
-192.0
89.0
376.0
644.0
938.0
1312.0
1706.0
1981.0
2026.0
1881.0
1691.0
1549.0
1365.0
938.0
208.0
-613.0
-1207.0
-1441.0
-1460.0
-1510.0
-1677.0
-1849.0
-1867.0
-1684.0
-1383.0
-1080.0
-865.0
-782.0
-794.0
-789.0
-685.0
-539.0
-486.0
-598.0
-777.0
-870.0
-835.0
-776.0
-769.0
-756.0
-638.0
-450.0
-344.0
-424.0
-610.0
-726.0
-689.0
-574.0
-489.0
-465.0
-454.0
-418.0
-380.0
-381.0
-437.0
-520.0
-574.0
-562.0
-484.0
-402.0
-375.0
-403.0
-430.0
-422.0
-399.0
-414.0
-465.0
-492.0
-441.0
-342.0
-271.0
-270.0
-305.0
-333.0
-349.0
-378.0
-427.0
-461.0
-433.0
-348.0
-258.0
-212.0
-224.0
-278.0
-347.0
-399.0
-416.0
-380.0
-311.0
-252.0
-237.0
-254.0
-258.0
-210.0
-135.0
-104.0
-162.0
-251.0
-264.0
-136.0
61.0
192.0
184.0
100.0
45.0
60.0
94.0
89.0
62.0
82.0
168.0
274.0
330.0
328.0
310.0
312.0
321.0
316.0
302.0
315.0
368.0
431.0
447.0
416.0
371.0
348.0
336.0
296.0
236.0
219.0
283.0
396.0
470.0
447.0
339.0
215.0
127.0
101.0
119.0
138.0
108.0
28.0
-40.0
-42.0
-18.0
-75.0
-258.0
-461.0
-545.0
-503.0
-452.0
-499.0
-610.0
-678.0
-666.0
-651.0
-707.0
-816.0
-897.0
-906.0
-867.0
-826.0
-801.0
-804.0
-835.0
-890.0
-932.0
-923.0
-869.0
-821.0
-813.0
-839.0
-852.0
-839.0
-827.0
-858.0
-929.0
-985.0
-971.0
-899.0
-809.0
-733.0
-667.0
-605.0
-573.0
-620.0
-738.0
-856.0
-894.0
-848.0
-781.0
-764.0
-797.0
-821.0
-782.0
-703.0
-660.0
-703.0
-797.0
-858.0
-827.0
-739.0
-669.0
-652.0
-662.0
-671.0
-690.0
-742.0
-803.0
-811.0
-742.0
-646.0
-594.0
-602.0
-618.0
-600.0
-560.0
-558.0
-612.0
-675.0
-688.0
-642.0
-581.0
-549.0
-551.0
-565.0
-585.0
-619.0
-658.0
-676.0
-660.0
-618.0
-573.0
-522.0
-476.0
-465.0
-520.0
-613.0
-668.0
-632.0
-558.0
-529.0
-555.0
-544.0
-441.0
-313.0
-293.0
-403.0
-543.0
-595.0
-558.0
-507.0
-484.0
-473.0
-458.0
-471.0
-545.0
-628.0
-636.0
-559.0
-484.0
-499.0
-581.0
-609.0
-518.0
-377.0
-319.0
-394.0
-521.0
-584.0
-560.0
-504.0
-463.0
-427.0
